1673937486.726118,1673937479.48974,-32.50543
1673937486.7273865,1673937479.50537,-23.30157
1673937486.7276855,1673937479.52099,-15.42557
1673937486.7278953,1673937479.53662,-8.811066
1673937486.7280848,1673937479.55224,-3.169342
1673937486.728279,1673937479.56787,1.820007
1673937486.728547,1673937479.58349,6.421997
1673937486.7288084,1673937479.59912,10.79962
1673937486.7290041,1673937479.61475,14.95166
1673937486.7291832,1673937479.63037,18.73724
1673937486.7293596,1673937479.646,21.91339
1673937486.9057236,1673937479.66162,24.23981
1673937486.9066236,1673937479.67725,25.59302
1673937486.9069397,1673937479.69287,26.09781
1673937486.9081032,1673937479.7085,26.07062
1673937486.90843,1673937479.72413,25.91754
1673937486.908745,1673937479.73975,25.94235
1673937486.9089735,1673937479.75538,26.18658
1673937486.909165,1673937479.771,26.46698
1673937486.909349,1673937479.78663,26.46121
1673937486.909529,1673937479.80225,25.88303
1673937486.9097054,1673937479.81788,24.58105
1673937487.0632057,1673937479.83351,22.54553
1673937487.064535,1673937479.84913,19.78766
1673937487.0648856,1673937479.86476,16.31067
1673937487.065208,1673937479.88038,12.13528
1673937487.06546,1673937479.89601,7.426147
1673937487.0656564,1673937479.91163,2.555908
1673937487.0658414,1673937479.92726,-1.933594
1673937487.0660217,1673937479.94289,-5.548096
1673937487.0662053,1673937479.95851,-8.091461
1673937487.0663815,1673937479.97414,-9.767548
1673937487.066561,1673937479.98976,-11.08441
1673937487.2425826,1673937480.00539,-12.58456
1673937487.243178,1673937480.02101,-14.54025
1673937487.2445006,1673937480.03664,-16.81628
1673937487.244745,1673937480.05227,-18.98288
1673937487.2449486,1673937480.06789,-20.58054
1673937487.2451403,1673937480.08352,-21.4194
1673937487.2453244,1673937480.09914,-21.66742
1673937487.2455232,1673937480.11477,-21.75699
1673937487.2458036,1673937480.13039,-22.10934
1673937487.2460551,1673937480.14602,-22.92923
1673937487.2462485,1673937480.16165,-24.13651
1673937487.4460044,1673937480.17727,-25.46555
1673937487.4484901,1673937480.1929,-26.64563
1673937487.4488058,1673937480.20852,-27.58255
1673937487.4490256,1673937480.22415,-28.4104
1673937487.4492238,1673937480.23977,-29.39645
1673937487.4494107,1673937480.2554,-30.79196
1673937487.4495938,1673937480.27103,-32.68726
1673937487.4497721,1673937480.28665,-34.96295
1673937487.4499512,1673937480.30228,-37.33905
1673937487.45013,1673937480.3179,-39.49988
1673937487.450308,1673937480.33353,-41.1972
1673937487.57975,1673937480.34916,-42.36554
1673937487.5808082,1673937480.36478,-43.13446
1673937487.5810509,1673937480.38041,-43.76062
1673937487.581254,1673937480.39603,-44.55719
1673937487.5814435,1673937480.41166,-45.83276
1673937487.5816262,1673937480.42728,-47.8172
1673937487.5818455,1673937480.44291,-50.55856
1673937487.582124,1673937480.45854,-53.83035
1673937487.5823574,1673937480.47416,-57.06662
1673937487.5825446,1673937480.48979,-59.36807
1673937487.5827277,1673937480.50541,-59.70053
1673937487.759983,1673937480.52104,-57.17453
1673937487.7608395,1673937480.53666,-51.41302
1673937487.7619517,1673937480.55229,-42.71408
1673937487.762232,1673937480.56792,-31.98917
1673937487.7624395,1673937480.58354,-20.49789
1673937487.7626288,1673937480.59917,-9.439209
1673937487.7628095,1673937480.61479,0.2814941
1673937487.7629886,1673937480.63042,8.244171
1673937487.7631624,1673937480.64604,14.39618
1673937487.7633698,1673937480.66167,18.94302
1673937487.763547,1673937480.6773,22.15771
1673937487.939814,1673937480.69292,24.32449
1673937487.9410014,1673937480.70855,25.71667
1673937487.941293,1673937480.72417,26.58191
1673937487.9415038,1673937480.7398,27.14954
1673937487.9416974,1673937480.75542,27.56274
1673937487.9418855,1673937480.77105,27.91495
1673937487.9420652,1673937480.78668,28.22067
1673937487.9422412,1673937480.8023,28.47473
1673937487.942418,1673937480.81793,28.67404
1673937487.942594,1673937480.83355,28.8623
1673937487.9427717,1673937480.84918,29.11365
1673937488.0972905,1673937480.8648,29.51239
1673937488.098472,1673937480.88043,30.14667
1673937488.098746,1673937480.89606,31.05457
1673937488.0989542,1673937480.91168,32.21652
1673937488.0991726,1673937480.92731,33.5139
1673937488.099405,1673937480.94293,34.76202
1673937488.0996528,1673937480.95856,35.72827
1673937488.0999405,1673937480.97418,36.20514
1673937488.100152,1673937480.98981,36.0667
1673937488.1003377,1673937481.00544,35.25461
1673937488.1005182,1673937481.02106,33.84183
1673937488.2775552,1673937481.03669,32.00362
1673937488.2930784,1673937481.05231,29.9433
1673937488.2933943,1673937481.06794,27.8689
1673937488.2936146,1673937481.08356,25.91255
1673937488.2938101,1673937481.09919,24.11403
1673937488.2939982,1673937481.11482,22.42424
1673937488.2941806,1673937481.13044,20.76918
1673937488.2943594,1673937481.14607,19.06119
1673937488.2945373,1673937481.16169,17.28789
1673937488.2947147,1673937481.17732,15.45998
1673937488.2948935,1673937481.19294,13.58481
1673937488.4658237,1673937481.20857,11.67714
1673937488.4660177,1673937481.2242,9.721512
1673937488.4662015,1673937481.23982,7.729172
1673937488.4663856,1673937481.25545,5.75473
1673937488.4666603,1673937481.27107,3.858322
1673937488.4669187,1673937481.2867,2.051743
1673937488.4671195,1673937481.30232,0.2741547
1673937488.4673362,1673937481.31795,-1.646423
1673937488.4675179,1673937481.33358,-3.903748
1673937488.4676929,1673937481.3492,-6.60112
1673937488.4678705,1673937481.36483,-9.695435
1673937488.6156344,1673937481.38045,-12.95673
1673937488.6168106,1673937481.39608,-16.06705
1673937488.617572,1673937481.4117,-18.76616
1673937488.6180727,1673937481.42733,-20.9722
1673937488.6183438,1673937481.44296,-22.83295
1673937488.6185417,1673937481.45858,-24.73322
1673937488.6187263,1673937481.47421,-27.14607
1673937488.6189067,1673937481.48983,-30.41936
1673937488.6190844,1673937481.50546,-34.60199
1673937488.6192915,1673937481.52108,-39.25896
1673937488.6194801,1673937481.53671,-43.47408
1673937488.796183,1673937481.55234,-46.07335
1673937488.7983153,1673937481.56796,-45.89674
1673937488.7986276,1673937481.58359,-42.20587
1673937488.7988465,1673937481.59921,-34.93999
1673937488.7990398,1673937481.61484,-24.77423
1673937488.799252,1673937481.63046,-12.89301
1673937488.799443,1673937481.64609,-0.7078171
1673937488.7996793,1673937481.66172,10.55931
1673937488.799961,1673937481.67734,20.10759
1673937488.800241,1673937481.69297,27.624
1673937488.800464,1673937481.70859,33.18942
1673937488.953067,1673937481.72422,37.11633
1673937488.9543521,1673937481.73984,39.74672
1673937488.954669,1673937481.75547,41.34021
1673937488.9548888,1673937481.7711,42.06093
1673937488.955086,1673937481.78672,41.99736
1673937488.955306,1673937481.80235,41.21075
1673937488.9554982,1673937481.81797,39.8083
1673937488.9556787,1673937481.8336,37.94185
1673937488.955857,1673937481.84922,35.78146
1673937488.9560363,1673937481.86485,33.46563
1673937488.9562345,1673937481.88048,31.09757
1673937489.1324198,1673937481.8961,28.74313
1673937489.1336567,1673937481.91173,26.47416
1673937489.133971,1673937481.92735,24.38007
1673937489.1341891,1673937481.94298,22.57889
1673937489.1343818,1673937481.9586,21.14331
1673937489.1345665,1673937481.97423,20.06116
1673937489.1347482,1673937481.98986,19.18732
1673937489.1349258,1673937482.00548,18.24122
1673937489.1351051,1673937482.02111,16.96398
1673937489.1353183,1673937482.03673,15.19407
1673937489.1355042,1673937482.05236,12.99728
1673937489.3129969,1673937482.06798,10.62566
1673937489.3141854,1673937482.08361,8.397438
1673937489.3144233,1673937482.09924,6.529438
1673937489.3146229,1673937482.11486,5.010601
1673937489.3148077,1673937482.13049,3.627239
1673937489.314984,1673937482.14611,2.072426
1673937489.315162,1673937482.16174,0.1323853
1673937489.3153803,1673937482.17736,-2.190262
1673937489.3155577,1673937482.19299,-4.650936
1673937489.3157287,1673937482.20862,-6.945858
1673937489.315901,1673937482.22424,-8.85405
1673937489.4927313,1673937482.23987,-10.36633
1673937489.493927,1673937482.25549,-11.71666
1673937489.4941645,1673937482.27112,-13.22725
1673937489.4943643,1673937482.28674,-15.15678
1673937489.4945493,1673937482.30237,-17.5606
1673937489.4947293,1673937482.318,-20.30231
1673937489.494905,1673937482.33362,-23.11161
1673937489.4950986,1673937482.34925,-25.74387
1673937489.4953036,1673937482.36487,-28.07943
1673937489.4954867,1673937482.3805,-30.12874
1673937489.4956613,1673937482.39612,-32.01245
1673937489.6500306,1673937482.41175,-33.89079
1673937489.6587224,1673937482.42738,-35.95791
1673937489.6590312,1673937482.443,-38.41994
1673937489.6592689,1673937482.45863,-41.49152
1673937489.6594732,1673937482.47425,-45.25677
1673937489.659657,1673937482.48988,-49.51472
1673937489.6598325,1673937482.5055,-53.60775
1673937489.6600056,1673937482.52113,-56.44921
1673937489.6601768,1673937482.53676,-56.77724
1673937489.6603491,1673937482.55238,-53.57689
1673937489.660519,1673937482.56801,-46.49271
1673937489.8305726,1673937482.58363,-36.01926
1673937489.8315852,1673937482.59926,-23.39361
1673937489.831871,1673937482.61489,-10.18759
1673937489.8325927,1673937482.63051,2.139155
1673937489.8328419,1673937482.64614,12.62618
1673937489.8330412,1673937482.66176,20.87363
1673937489.8332267,1673937482.67739,26.96335
1673937489.8334038,1673937482.69301,31.24777
1673937489.833579,1673937482.70864,34.14992
1673937489.833751,1673937482.72427,36.04133
1673937489.833923,1673937482.73989,37.2363
1673937489.9878602,1673937482.75552,37.94975
1673937489.9904041,1673937482.77114,38.30373
1673937489.990709,1673937482.78677,38.32206
1673937489.9909194,1673937482.80239,37.97957
1673937489.9911103,1673937482.81802,37.26297
1673937489.9913254,1673937482.83365,36.26241
1673937489.9915054,1673937482.84927,35.1706
1673937489.9916809,1673937482.8649,34.22742
1673937489.991853,1673937482.88052,33.66174
1673937489.9920256,1673937482.89615,33.62315
1673937489.9921963,1673937482.91177,34.14244
1673937490.167874,1673937482.9274,35.11981
1673937490.168652,1673937482.94303,36.37416
1673937490.1689267,1673937482.95865,37.63436
1673937490.169133,1673937482.97428,38.60807
1673937490.1703134,1673937482.9899,39.01506
1673937490.1706223,1673937483.00553,38.67193
1673937490.170837,1673937483.02115,37.56741
1673937490.171029,1673937483.03678,35.86286
1673937490.1712382,1673937483.05241,33.87242
1673937490.171425,1673937483.06803,31.87353
1673937490.1715972,1673937483.08366,30.06128
1673937490.3252106,1673937483.09928,28.43088
1673937490.3263035,1673937483.11491,26.84222
1673937490.3265772,1673937483.13053,25.11646
1673937490.326782,1673937483.14616,23.16459
1673937490.326968,1673937483.16179,21.0046
1673937490.32715,1673937483.17741,18.73061
1673937490.327361,1673937483.19304,16.44263
1673937490.3275378,1673937483.20866,14.16792
1673937490.3277123,1673937483.22429,11.86908
1673937490.3278835,1673937483.23991,9.518379
1673937490.3280559,1673937483.25554,7.155251
1673937490.5048373,1673937483.27117,4.893791
1673937490.5067744,1673937483.28679,2.860672
1673937490.5070786,1673937483.30242,1.072258
1673937490.5073252,1673937483.31804,-0.631134
1673937490.507529,1673937483.33367,-2.552971
1673937490.5077114,1673937483.34929,-4.999771
1673937490.5078893,1673937483.36492,-8.162743
1673937490.5080602,1673937483.38055,-11.98284
1673937490.5082307,1673937483.39617,-16.20308
1673937490.5084023,1673937483.4118,-20.44277
1673937490.5085716,1673937483.42742,-24.38897
1673937490.685761,1673937483.44305,-27.87433
1673937490.6898155,1673937483.45867,-30.90126
1673937490.6901274,1673937483.4743,-33.64638
1673937490.6903448,1673937483.48993,-36.35912
1673937490.6905398,1673937483.50555,-39.37247
1673937490.6907232,1673937483.52118,-42.98045
1673937490.6908994,1673937483.5368,-47.37667
1673937490.6910748,1673937483.55243,-52.43127
1673937490.6912746,1673937483.56805,-57.57817
1673937490.6914587,1673937483.58368,-61.76482
1673937490.6916332,1673937483.59931,-63.65149
1673937490.8660254,1673937483.61493,-62.00746
1673937490.8669083,1673937483.63056,-56.1279
1673937490.8680687,1673937483.64618,-46.19971
1673937490.8683054,1673937483.66181,-33.29813
1673937490.8685029,1673937483.67743,-19.11162
1673937490.8686893,1673937483.69306,-5.447311
1673937490.8688676,1673937483.70869,6.251053
1673937490.8690417,1673937483.72431,15.22309
1673937490.8692129,1673937483.73994,21.44823
1673937490.8693855,1673937483.75556,25.4161
1673937490.8695796,1673937483.77119,27.83974
1673937491.0226386,1673937483.78681,29.36768
1673937491.023294,1673937483.80244,30.43156
1673937491.024429,1673937483.81807,31.23363
1673937491.0246668,1673937483.83369,31.84079
1673937491.0248628,1673937483.84932,32.27831
1673937491.0250447,1673937483.86494,32.56837
1673937491.0252218,1673937483.88057,32.74712
1673937491.025391,1673937483.89619,32.811
1673937491.0255632,1673937483.91182,32.72192
1673937491.0257347,1673937483.92745,32.44437
1673937491.025906,1673937483.94307,32.00072
1673937491.2033148,1673937483.9587,31.53223
1673937491.2045531,1673937483.97432,31.22011
1673937491.2048583,1673937483.98995,31.2647
1673937491.2050729,1673937484.00557,31.7264
1673937491.2052608,1673937484.0212,32.49157
1673937491.205441,1673937484.03683,33.28762
1673937491.205613,1673937484.05245,33.78747
1673937491.205782,1673937484.06808,33.73435
1673937491.205953,1673937484.0837,33.02851
1673937491.2061214,1673937484.09933,31.76573
1673937491.2062912,1673937484.11495,30.11287
1673937491.3830051,1673937484.13058,28.25336
1673937491.383773,1673937484.14621,26.33733
1673937491.3844986,1673937484.16183,24.40668
1673937491.3847167,1673937484.17746,22.47118
1673937491.3848817,1673937484.19308,20.54019
1673937491.3850327,1673937484.20871,18.64631
1673937491.3851755,1673937484.22433,16.80357
1673937491.3853142,1673937484.23996,15.0139
1673937491.385488,1673937484.25559,13.21485
1673937491.3856375,1673937484.27121,11.29781
1673937491.3857791,1673937484.28684,9.178253
1673937491.56293,1673937484.30246,6.837776
1673937491.5640812,1673937484.31809,4.330666
1673937491.56432,1673937484.33371,1.775383
1673937491.564517,1673937484.34934,-0.7002716
1673937491.5647025,1673937484.36497,-3.01342
1673937491.5648808,1673937484.38059,-5.157005
1673937491.5650544,1673937484.39622,-7.193199
1673937491.5652244,1673937484.41184,-9.257423
1673937491.5653932,1673937484.42747,-11.51913
1673937491.5655653,1673937484.44309,-14.10396
1673937491.5657368,1673937484.45872,-17.04986
1673937491.7431686,1673937484.47435,-20.25631
1673937491.7444344,1673937484.48997,-23.4705
1673937491.7447748,1673937484.5056,-26.42397
1673937491.7450337,1673937484.52122,-28.93259
1673937491.745272,1673937484.53685,-31.00699
1673937491.7454948,1673937484.55247,-32.8674
1673937491.745713,1673937484.5681,-34.90224
1673937491.745928,1673937484.58373,-37.54031
1673937491.7461438,1673937484.59935,-41.06731
1673937491.7463603,1673937484.61498,-45.4489
1673937491.7465706,1673937484.6306,-50.20914
1673937491.901433,1673937484.64623,-54.42102
1673937491.9023182,1673937484.66185,-56.8851
1673937491.903123,1673937484.67748,-56.44685
1673937491.9038413,1673937484.69311,-52.36779
1673937491.9041386,1673937484.70873,-44.62135
1673937491.9043853,1673937484.72436,-33.97215
1673937491.9046159,1673937484.73998,-21.74887
1673937491.9048357,1673937484.75561,-9.441032
1673937491.9050517,1673937484.77123,1.681564
1673937491.905265,1673937484.78686,10.83768
1673937491.9054794,1673937484.80249,17.79008
1673937492.081376,1673937484.81811,22.66525
1673937492.081961,1673937484.83374,25.76579
1673937492.0824924,1673937484.84936,27.43909
1673937492.082657,1673937484.86499,27.99101
1673937492.0828035,1673937484.88062,27.7029
1673937492.0829427,1673937484.89624,26.85301
1673937492.0830755,1673937484.91187,25.70152
1673937492.0832062,1673937484.92749,24.45908
1673937492.083362,1673937484.94312,23.30619
1673937492.0834975,1673937484.95874,22.37167
1673937492.0836267,1673937484.97437,21.73589
1673937492.2193184,1673937484.99,21.47469
1673937492.219526,1673937485.00562,21.66993
1673937492.2197332,1673937485.02125,22.36285
1673937492.2199342,1673937485.03687,23.53825
1673937492.2201297,1673937485.0525,25.06514
1673937492.2203193,1673937485.06812,26.70693
1673937492.2205164,1673937485.08375,28.16499
1673937492.220694,1673937485.09938,29.1581
1673937492.2208815,1673937485.115,29.48444
1673937492.2210822,1673937485.13063,29.06917
1673937492.2212732,1673937485.14625,27.9802
1673937492.3949773,1673937485.16188,26.36368
1673937492.396131,1673937485.1775,24.38866
1673937492.3964283,1673937485.19313,22.21568
1673937492.3966355,1673937485.20876,19.97578
1673937492.3968203,1673937485.22438,17.73159
1673937492.3969972,1673937485.24001,15.49258
1673937492.3971713,1673937485.25563,13.21233
1673937492.3973453,1673937485.27126,10.80379
1673937492.3975177,1673937485.28688,8.189449
1673937492.397687,1673937485.30251,5.362484
1673937492.397855,1673937485.31814,2.394314
1673937492.5755453,1673937485.33376,-0.6029091
1673937492.5766416,1673937485.34939,-3.515053
1673937492.5768783,1673937485.36501,-6.325172
1673937492.577077,1673937485.38064,-9.09201
1673937492.5772598,1673937485.39626,-11.91073
1673937492.5774374,1673937485.41189,-14.85027
1673937492.5776098,1673937485.42752,-17.89285
1673937492.5777829,1673937485.44314,-20.9306
1673937492.5779533,1673937485.45877,-23.84247
1673937492.578123,1673937485.47439,-26.564
1673937492.5782914,1673937485.49002,-29.13751
1673937492.7327402,1673937485.50564,-31.71912
1673937492.7338378,1673937485.52127,-34.53547
1673937492.7340732,1673937485.5369,-37.79247
1673937492.734268,1673937485.55252,-41.59687
1673937492.7344499,1673937485.56815,-45.82492
1673937492.7346241,1673937485.58377,-50.02895
1673937492.7347982,1673937485.5994,-53.44724
1673937492.7349677,1673937485.61502,-55.08775
1673937492.7351387,1673937485.63065,-54.00658
1673937492.7353504,1673937485.64628,-49.64234
1673937492.735524,1673937485.6619,-42.04832
1673937492.9143753,1673937485.67753,-31.96173
1673937492.9171252,1673937485.69315,-20.60705
1673937492.9174352,1673937485.70878,-9.333767
1673937492.9180815,1673937485.7244,0.7743721
1673937492.9183567,1673937485.74003,9.095879
1673937492.9185603,1673937485.75566,15.51662
1673937492.9191644,1673937485.77128,20.2485
1673937492.919374,1673937485.78691,23.59948
1673937492.9195514,1673937485.80253,25.82521
1673937492.919726,1673937485.81816,27.11293
1673937492.9198966,1673937485.83378,27.58657
1673937493.0938878,1673937485.84941,27.41809
1673937493.0948339,1673937485.86504,26.83834
1673937493.0951464,1673937485.88066,26.0871
1673937493.0960102,1673937485.89629,25.37737
1673937493.096242,1673937485.91191,24.84547
1673937493.0964367,1673937485.92754,24.5139
1673937493.0966196,1673937485.94316,24.32858
1673937493.0967932,1673937485.95879,24.2327
1673937493.0969665,1673937485.97442,24.20669
1673937493.0971394,1673937485.99004,24.29508
1673937493.0973115,1673937486.00567,24.58916
1673937493.2963932,1673937486.02129,25.13306
1673937493.2977657,1673937486.03692,25.87575
1673937493.2982385,1673937486.05254,26.65839
1673937493.2984445,1673937486.06817,27.2261
1673937493.298631,1673937486.0838,27.34048
1673937493.2988148,1673937486.09942,26.88301
1673937493.2989914,1673937486.11505,25.88733
1673937493.2991683,1673937486.13067,24.50746
1673937493.2993984,1673937486.1463,22.92385
1673937493.2995763,1673937486.16192,21.23366
1673937493.2997484,1673937486.17755,19.44569
1673937493.4300964,1673937486.19318,17.52068
1673937493.431201,1673937486.2088,15.4325
1673937493.431498,1673937486.22443,13.23195
1673937493.4317,1673937486.24005,11.01627
1673937493.4318817,1673937486.25568,8.869484
1673937493.4320614,1673937486.2713,6.78751
1673937493.4322333,1673937486.28693,4.706261
1673937493.4324036,1673937486.30256,2.526834
1673937493.4325724,1673937486.31818,0.2297573
1673937493.4327388,1673937486.33381,-2.098024
1673937493.4329064,1673937486.34943,-4.314657
1673937493.6326323,1673937486.36506,-6.291781
1673937493.6337454,1673937486.38068,-8.044068
1673937493.6339862,1673937486.39631,-9.728451
1673937493.6341891,1673937486.41194,-11.59177
1673937493.634381,1673937486.42756,-13.82699
1673937493.6345625,1673937486.44319,-16.54729
1673937493.6347392,1673937486.45881,-19.68229
1673937493.6349149,1673937486.47444,-23.04781
1673937493.6350887,1673937486.49006,-26.40409
1673937493.635297,1673937486.50569,-29.5278
1673937493.63548,1673937486.52132,-32.2548
1673937493.768955,1673937486.53694,-34.57098
1673937493.7727277,1673937486.55257,-36.59646
1673937493.7730415,1673937486.56819,-38.60259
1673937493.7732582,1673937486.58382,-40.98957
1673937493.7734518,1673937486.59944,-44.11791
1673937493.7736678,1673937486.61507,-48.13647
1673937493.7738507,1673937486.6307,-52.80669
1673937493.7740295,1673937486.64632,-57.38865
1673937493.7742045,1673937486.66195,-60.75277
1673937493.7743783,1673937486.67757,-61.66624
1673937493.7745516,1673937486.6932,-59.16447
1673937493.947618,1673937486.70882,-52.8886
1673937493.9488719,1673937486.72445,-43.27557
1673937493.949149,1673937486.74008,-31.42801
1673937493.9493604,1673937486.7557,-18.81676
1673937493.9495533,1673937486.77133,-6.883172
1673937493.9497387,1673937486.78695,3.312643
1673937493.9499187,1673937486.80258,11.25773
1673937493.9501011,1673937486.8182,16.93557
1673937493.9506829,1673937486.83383,20.67351
1673937493.950855,1673937486.84946,22.97124
1673937493.9510279,1673937486.86508,24.2812
1673937494.105653,1673937486.88071,24.98618
1673937494.1067305,1673937486.89633,25.33423
1673937494.1070166,1673937486.91196,25.47397
1673937494.1074493,1673937486.92758,25.4717
1673937494.1076748,1673937486.94321,25.37509
1673937494.107869,1673937486.95884,25.20634
1673937494.1080558,1673937486.97446,25.00453
1673937494.1082373,1673937486.99009,24.81742
1673937494.1084185,1673937487.00571,24.68059
1673937494.1085947,1673937487.02134,24.65815
1673937494.1087744,1673937487.03696,24.82736
1673937494.286423,1673937487.05259,25.25632
1673937494.2891183,1673937487.06822,25.95163
1673937494.2894459,1673937487.08384,26.84702
1673937494.2896965,1673937487.09947,27.73114
1673937494.290008,1673937487.11509,28.33757
1673937494.2902596,1673937487.13072,28.42559
1673937494.2904582,1673937487.14634,27.88413
1673937494.290644,1673937487.16197,26.7753
1673937494.2908306,1673937487.1776,25.31362
1673937494.2910154,1673937487.19322,23.74695
1673937494.2911952,1673937487.20885,22.21368
1673937494.4654171,1673937487.22447,20.74097
1673937494.4666297,1673937487.2401,19.23836
1673937494.4669478,1673937487.25572,17.60325
1673937494.4671667,1673937487.27135,15.7928
1673937494.4674387,1673937487.28698,13.83261
1673937494.4762845,1673937487.3026,11.77855
1673937494.4765587,1673937487.31823,9.647182
1673937494.4767683,1673937487.33385,7.404385
1673937494.4769616,1673937487.34948,5.012482
1673937494.4772165,1673937487.3651,2.494499
1673937494.4775064,1673937487.38073,-0.04211044
1673937494.6270614,1673937487.39636,-2.428354
1673937494.6272907,1673937487.41198,-4.507832
1673937494.6274939,1673937487.42761,-6.224998
1673937494.62768,1673937487.44323,-7.6758
1673937494.6278594,1673937487.45886,-9.070108
1673937494.6280386,1673937487.47449,-10.64808
1673937494.6282196,1673937487.49011,-12.58224
1673937494.6283982,1673937487.50574,-14.89935
1673937494.6285775,1673937487.52136,-17.52229
1673937494.6287558,1673937487.53699,-20.3123
1673937494.6289332,1673937487.55261,-23.12745
1673937494.8039894,1673937487.56824,-25.87554
1673937494.8056896,1673937487.58387,-28.47903
1673937494.8060086,1673937487.59949,-30.87723
1673937494.8062315,1673937487.61512,-33.04722
1673937494.8064325,1673937487.63074,-35.03613
1673937494.8066225,1673937487.64637,-37.01777
1673937494.8068092,1673937487.66199,-39.3209
1673937494.8070462,1673937487.67762,-42.30967
1673937494.8075387,1673937487.69325,-46.10482
1673937494.8078125,1673937487.70887,-50.42452
1673937494.8080914,1673937487.7245,-54.42391
1673937494.9837563,1673937487.74012,-56.86189
1673937494.9853773,1673937487.75575,-56.49841
1673937494.985629,1673937487.77137,-52.52315
1673937494.9858372,1673937487.787,-44.92369
1673937494.986034,1673937487.80263,-34.52129
1673937494.9862235,1673937487.81825,-22.70072
1673937494.9864347,1673937487.83388,-10.91138
1673937494.9866242,1673937487.8495,-0.3061562
1673937494.9868088,1673937487.86513,8.495121
1673937494.9869905,1673937487.88075,15.36686
1673937494.987751,1673937487.89638,20.455
1673937495.140813,1673937487.91201,23.95941
1673937495.1427376,1673937487.92763,26.04013
1673937495.143352,1673937487.94326,26.8291
1673937495.1436236,1673937487.95888,26.4998
1673937495.1438298,1673937487.97451,25.35966
1673937495.144024,1673937487.99013,23.8188
1673937495.1442091,1673937488.00576,22.27633
1673937495.1444232,1673937488.02139,21.03837
1673937495.1446352,1673937488.03701,20.20704
1673937495.144818,1673937488.05264,19.73771
1673937495.1449993,1673937488.06826,19.49333
1673937495.343359,1673937488.08389,19.38539
1673937495.3445196,1673937488.09951,19.42033
1673937495.3447695,1673937488.11514,19.69345
1673937495.3449776,1673937488.13077,20.2894
1673937495.3451715,1673937488.14639,21.20305
1673937495.3453565,1673937488.16202,22.3064
1673937495.3455374,1673937488.17764,23.33173
1673937495.3457203,1673937488.19327,23.99643
1673937495.3459027,1673937488.20889,24.06488
1673937495.346078,1673937488.22452,23.43852
1673937495.3462555,1673937488.24015,22.17207
1673937495.5001988,1673937488.25577,20.44855
1673937495.50131,1673937488.2714,18.49724
1673937495.501553,1673937488.28702,16.52237
1673937495.501753,1673937488.30265,14.65669
1673937495.5019436,1673937488.31827,12.90007
1673937495.5021284,1673937488.3339,11.16415
1673937495.5023077,1673937488.34953,9.320688
1673937495.5024862,1673937488.36515,7.304386
1673937495.5026639,1673937488.38078,5.122408
1673937495.5028412,1673937488.3964,2.861629
1673937495.50302,1673937488.41203,0.6377354
1673937495.6811466,1673937488.42765,-1.46726
1673937495.6823664,1673937488.44328,-3.437565
1673937495.6826468,1673937488.45891,-5.352596
1673937495.6828606,1673937488.47453,-7.364098
1673937495.6830559,1673937488.49016,-9.643305
1673937495.6832786,1673937488.50578,-12.30105
1673937495.6834717,1673937488.52141,-15.34685
1673937495.6836536,1673937488.53703,-18.65092
1673937495.6838317,1673937488.55266,-21.97845
1673937495.6840084,1673937488.56829,-25.05875
1673937495.6841846,1673937488.58391,-27.69862
1673937495.8378472,1673937488.59954,-29.87184
1673937495.839138,1673937488.61516,-31.73009
1673937495.839437,1673937488.63079,-33.59031
1673937495.8396497,1673937488.64641,-35.84113
1673937495.8398414,1673937488.66204,-38.82674
1673937495.8400264,1673937488.67767,-42.65993
1673937495.8402061,1673937488.69329,-47.07062
1673937495.840385,1673937488.70892,-51.33872
1673937495.8407526,1673937488.72454,-54.369
1673937495.841129,1673937488.74017,-54.97059
1673937495.8413153,1673937488.75579,-52.23272
1673937495.9953058,1673937488.77142,-45.86672
1673937495.9964278,1673937488.78705,-36.3637
1673937495.9972277,1673937488.80267,-24.904
1673937495.9975238,1673937488.8183,-12.9584
1673937495.9977832,1673937488.83392,-1.881417
1673937495.997993,1673937488.84955,7.402278
1673937495.998183,1673937488.86517,14.52628
1673937495.99879,1673937488.8808,19.56255
1673937495.9989793,1673937488.89643,22.82681
1673937495.9991612,1673937488.91205,24.71784
1673937495.99938,1673937488.92768,25.62152
1673937496.175945,1673937488.9433,25.87317
1673937496.1771455,1673937488.95893,25.77003
1673937496.1774628,1673937488.97455,25.54309
1673937496.1776838,1673937488.99018,25.33875
1673937496.1778834,1673937489.00581,25.20937
1673937496.178073,1673937489.02143,25.12568
1673937496.1782594,1673937489.03706,25.01343
1673937496.1784468,1673937489.05268,24.80544
1673937496.1786325,1673937489.06831,24.50488
1673937496.1788158,1673937489.08393,24.20825
1673937496.1789992,1673937489.09956,24.0784
1673937496.3784432,1673937489.11519,24.28895
1673937496.3790665,1673937489.13081,24.92352
1673937496.38013,1673937489.14644,25.92744
1673937496.3803658,1673937489.16206,27.09453
1673937496.3805635,1673937489.17769,28.11481
1673937496.3807495,1673937489.19331,28.66811
1673937496.3809302,1673937489.20894,28.53764
1673937496.3811061,1673937489.22457,27.67163
1673937496.3812823,1673937489.24019,26.17588
1673937496.3814602,1673937489.25582,24.2433
1673937496.3816588,1673937489.27144,22.0813
1673937496.5208595,1673937489.28707,19.88701
1673937496.5210521,1673937489.30269,17.79726
1673937496.5212317,1673937489.31832,15.91069
1673937496.521402,1673937489.33395,14.22941
1673937496.5215724,1673937489.34957,12.63147
1673937496.5217414,1673937489.3652,10.93233
1673937496.5219095,1673937489.38082,8.939786
1673937496.5220795,1673937489.39645,6.558324
1673937496.5222466,1673937489.41207,3.867614
1673937496.522413,1673937489.4277,1.098926
1673937496.5225782,1673937489.44333,-1.483077
1673937496.692659,1673937489.45895,-3.690523
1673937496.6962283,1673937489.47458,-5.542439
1673937496.6965315,1673937489.4902,-7.260231
1673937496.6967397,1673937489.50583,-9.137301
1673937496.6969244,1673937489.52145,-11.39769
1673937496.6971,1673937489.53708,-14.08714
1673937496.6972742,1673937489.55271,-17.07384
1673937496.6974454,1673937489.56833,-20.11386
1673937496.6976137,1673937489.58396,-22.98374
1673937496.6977816,1673937489.59958,-25.54088
1673937496.6979516,1673937489.61521,-27.79981
1673937496.8743277,1673937489.63083,-29.90363
1673937496.8751743,1673937489.64646,-32.05888
1673937496.8757057,1673937489.66209,-34.48861
1673937496.8767924,1673937489.67771,-37.41344
1673937496.8770592,1673937489.69334,-40.97139
1673937496.8772576,1673937489.70896,-45.14776
1673937496.8774393,1673937489.72459,-49.61694
1673937496.8780017,1673937489.74022,-53.66614
1673937496.8781815,1673937489.75584,-56.24703
1673937496.8783524,1673937489.77147,-56.24576
1673937496.8785195,1673937489.78709,-52.84069
1673937497.0304074,1673937489.80272,-45.878
1673937497.0322297,1673937489.81834,-35.96758
1673937497.0325358,1673937489.83397,-24.30923
1673937497.032745,1673937489.8496,-12.36305
1673937497.0329304,1673937489.86522,-1.394354
1673937497.033109,1673937489.88085,7.7929
1673937497.0332794,1673937489.89647,14.8897
1673937497.0338452,1673937489.9121,19.99279
1673937497.0340176,1673937489.92772,23.40937
1673937497.0341852,1673937489.94335,25.47275
1673937497.0343513,1673937489.95898,26.50495
1673937497.210287,1673937489.9746,26.79982
1673937497.211598,1673937489.99023,26.61659
1673937497.2119014,1673937490.00585,26.19014
1673937497.212113,1673937490.02148,25.7131
1673937497.2123008,1673937490.0371,25.31295
1673937497.2124796,1673937490.05273,25.02685
1673937497.2126515,1673937490.06836,24.83241
1673937497.2128215,1673937490.08398,24.65553
1673937497.2129889,1673937490.09961,24.45306
1673937497.2131588,1673937490.11523,24.27331
1673937497.2133272,1673937490.13086,24.24992
1673937497.3914382,1673937490.14648,24.53523
1673937497.392144,1673937490.16211,25.21465
1673937497.392433,1673937490.17774,26.20941
1673937497.393272,1673937490.19336,27.26441
1673937497.393552,1673937490.20899,28.06807
1673937497.3942504,1673937490.22461,28.32355
1673937497.3945167,1673937490.24024,27.91793
1673937497.3947132,1673937490.25586,26.9163
1673937497.3948953,1673937490.27149,25.52565
1673937497.3950708,1673937490.28712,23.96451
1673937497.39528,1673937490.30274,22.38397
1673937497.6158953,1673937490.31837,20.8173
1673937497.6207378,1673937490.33399,19.22975
1673937497.6212487,1673937490.34962,17.53099
1673937497.6214602,1673937490.36524,15.65174
1673937497.6216474,1673937490.38087,13.55866
1673937497.6218252,1673937490.3965,11.2617
1673937497.622,1673937490.41212,8.799425
1673937497.622172,1673937490.42775,6.241984
1673937497.6223426,1673937490.44337,3.676013
1673937497.622512,1673937490.459,1.182176
1673937497.6226828,1673937490.47462,-1.202648
1673937497.750603,1673937490.49025,-3.502489
1673937497.7515883,1673937490.50588,-5.81603
1673937497.752355,1673937490.5215,-8.257805
1673937497.7525842,1673937490.53713,-10.90961
1673937497.7527962,1673937490.55275,-13.75435
1673937497.7529953,1673937490.56838,-16.68099
1673937497.753175,1673937490.584,-19.51758
1673937497.753346,1673937490.59963,-22.10947
1673937497.7535148,1673937490.61526,-24.38736
1673937497.75368,1673937490.63088,-26.38952
1673937497.7538447,1673937490.64651,-28.26871
1673937497.885161,1673937490.66213,-30.28053
1673937497.886337,1673937490.67776,-32.72622
1673937497.8866026,1673937490.69338,-35.83559
1673937497.8868368,1673937490.70901,-39.60342
1673937497.88702,1673937490.72464,-43.63737
1673937497.8871927,1673937490.74026,-47.1132
1673937497.8874037,1673937490.75589,-48.91285
1673937497.8875716,1673937490.77151,-47.97804
1673937497.887741,1673937490.78714,-43.69546
1673937497.8879068,1673937490.80276,-36.19456
1673937497.8880744,1673937490.81839,-26.33162
1673937498.065023,1673937490.83402,-15.41894
1673937498.0662057,1673937490.84964,-4.822824
1673937498.066432,1673937490.86527,4.444864
1673937498.0666425,1673937490.88089,11.87438
1673937498.0672424,1673937490.89652,17.42026
1673937498.0674179,1673937490.91214,21.2882
1673937498.0675805,1673937490.92777,23.76494
1673937498.0677454,1673937490.9434,25.08272
1673937498.067911,1673937490.95902,25.4496
1673937498.0680745,1673937490.97465,25.07037
1673937498.0682385,1673937490.99027,24.17998
1673937498.2464108,1673937491.0059,23.03174
1673937498.2473233,1673937491.02152,21.84962
1673937498.248237,1673937491.03715,20.77978
1673937498.2484965,1673937491.05278,19.87987
1673937498.248691,1673937491.0684,19.16738
1673937498.248915,1673937491.08403,18.67292
1673937498.249096,1673937491.09965,18.47625
1673937498.2492678,1673937491.11528,18.70042
1673937498.249436,1673937491.1309,19.42968
1673937498.2496004,1673937491.14653,20.64198
1673937498.2497659,1673937491.16216,22.14237
1673937498.4025488,1673937491.17778,23.59657
1673937498.403145,1673937491.19341,24.63107
1673937498.4041002,1673937491.20903,24.9413
1673937498.404344,1673937491.22466,24.4285
1673937498.404629,1673937491.24028,23.19954
1673937498.4048736,1673937491.25591,21.52204
1673937498.4050586,1673937491.27154,19.67834
1673937498.405233,1673937491.28716,17.85671
1673937498.4054027,1673937491.30279,16.0604
1673937498.4055707,1673937491.31841,14.15702
1673937498.4057367,1673937491.33404,11.99911
1673937498.5831199,1673937491.34966,9.515519
1673937498.584106,1673937491.36529,6.785295
1673937498.5849009,1673937491.38092,3.987809
1673937498.585167,1673937491.39654,1.330417
1673937498.5853658,1673937491.41217,-1.079494
1673937498.5855458,1673937491.42779,-3.232913
1673937498.5857193,1673937491.44342,-5.259828
1673937498.5858908,1673937491.45904,-7.308455
1673937498.58606,1673937491.47467,-9.530207
1673937498.5862284,1673937491.4903,-12.01186
1673937498.5863976,1673937491.50592,-14.78681
1673937498.762586,1673937491.52155,-17.79588
1673937498.7637029,1673937491.53717,-20.90652
1673937498.7639809,1673937491.5528,-23.91233
1673937498.7641873,1673937491.56842,-26.58698
1673937498.7643778,1673937491.58405,-28.78823
1673937498.7645586,1673937491.59968,-30.58057
1673937498.764769,1673937491.6153,-32.24159
1673937498.764968,1673937491.63093,-34.22263
1673937498.7651417,1673937491.64655,-36.97923
1673937498.7653186,1673937491.66218,-40.74319
1673937498.7654915,1673937491.6778,-45.33322
1673937498.9199436,1673937491.69343,-50.07251
1673937498.9211698,1673937491.70906,-53.89928
1673937498.9214149,1673937491.72468,-55.60365
1673937498.9216118,1673937491.74031,-54.22575
1673937498.921794,1673937491.75593,-49.36618
1673937498.9219716,1673937491.77156,-41.34985
1673937498.9221454,1673937491.78718,-31.12021
1673937498.9223235,1673937491.80281,-19.97451
1673937498.922496,1673937491.81844,-9.18483
1673937498.922666,1673937491.83406,0.3170242
1673937498.9228408,1673937491.84969,8.047002
1673937499.100605,1673937491.86531,13.94412
1673937499.1024487,1673937491.88094,18.19772
1673937499.1026416,1673937491.89656,21.10979
1673937499.1028235,1673937491.91219,22.98467
1673937499.103002,1673937491.92782,24.11877
1673937499.103176,1673937491.94344,24.74986
1673937499.1034203,1673937491.95907,25.03672
1673937499.1036026,1673937491.97469,25.04437
1673937499.1037793,1673937491.99032,24.78441
1673937499.1039555,1673937492.00594,24.28787
1673937499.1041284,1673937492.02157,23.67731
1673937499.280785,1673937492.0372,23.15432
1673937499.281974,1673937492.05282,22.90623
1673937499.2822504,1673937492.06845,23.0283
1673937499.2824552,1673937492.08407,23.47577
1673937499.2826412,1673937492.0997,24.09416
1673937499.2828226,1673937492.11532,24.732
1673937499.2830014,1673937492.13095,25.30182
1673937499.2831793,1673937492.14658,25.79715
1673937499.2834108,1673937492.1622,26.22721
1673937499.2835908,1673937492.17783,26.53299
1673937499.2837636,1673937492.19345,26.58947
1673937499.461424,1673937492.20908,26.23986
1673937499.4643948,1673937492.2247,25.38833
1673937499.4647126,1673937492.24033,24.07436
1673937499.4649286,1673937492.25596,22.44317
1673937499.4651246,1673937492.27158,20.66278
1673937499.4653096,1673937492.28721,18.8838
1673937499.4654887,1673937492.30283,17.17713
1673937499.4656937,1673937492.31846,15.55098
1673937499.4658742,1673937492.33409,13.97238
1673937499.4660492,1673937492.34971,12.3744
1673937499.4662237,1673937492.36534,10.66763
1673937499.6414855,1673937492.38096,8.745386
1673937499.6424162,1673937492.39659,6.556418
1673937499.6427267,1673937492.41221,4.127069
1673937499.6437519,1673937492.42784,1.58045
1673937499.6439881,1673937492.44347,-0.8724098
1673937499.6441884,1673937492.45909,-3.08366
1673937499.6443741,1673937492.47472,-5.041141
1673937499.6445522,1673937492.49034,-6.893983
1673937499.6447284,1673937492.50597,-8.888556
1673937499.6449034,1673937492.52159,-11.24108
1673937499.6450794,1673937492.53722,-14.00514
1673937499.798596,1673937492.55285,-17.03608
1673937499.7995536,1673937492.56847,-20.06352
1673937499.800423,1673937492.5841,-22.82973
1673937499.8006647,1673937492.59972,-25.21272
1673937499.800867,1673937492.61535,-27.30816
1673937499.8010578,1673937492.63097,-29.34987
1673937499.8012414,1673937492.6466,-31.6331
1673937499.8014212,1673937492.66223,-34.38494
1673937499.8015983,1673937492.67785,-37.73864
1673937499.8017766,1673937492.69348,-41.64726
1673937499.801952,1673937492.7091,-45.86523
1673937499.9553797,1673937492.72473,-49.90984
1673937499.9565804,1673937492.74035,-53.04978
1673937499.9568944,1673937492.75598,-54.41355
1673937499.957111,1673937492.77161,-53.17865
1673937499.9573026,1673937492.78723,-48.83844
1673937499.9574866,1673937492.80286,-41.44433
1673937499.9576645,1673937492.81848,-31.6666
1673937499.957841,1673937492.83411,-20.65271
1673937499.958028,1673937492.84973,-9.711802
1673937499.9582877,1673937492.86536,0.03025627
1673937499.9585009,1673937492.88099,7.905678
1673937500.1364744,1673937492.89661,13.74983
1673937500.138043,1673937492.91224,17.82288
1673937500.1389089,1673937492.92786,20.5576
1673937500.1391861,1673937492.94349,22.39154
1673937500.1394532,1673937492.95911,23.61963
1673937500.1396472,1673937492.97474,24.39531
1673937500.1398292,1673937492.99037,24.76001
1673937500.1400108,1673937493.00599,24.76812
1673937500.1401877,1673937493.02162,24.51602
1673937500.140362,1673937493.03724,24.16016
1673937500.1405513,1673937493.05287,23.87403
1673937500.2937367,1673937493.06849,23.76088
1673937500.29615,1673937493.08412,23.85039
1673937500.2964857,1673937493.09975,24.11553
1673937500.296707,1673937493.11537,24.5055
1673937500.296897,1673937493.131,24.97708
1673937500.2970827,1673937493.14662,25.52364
1673937500.2972622,1673937493.16225,26.14489
1673937500.2974396,1673937493.17787,26.77563
1673937500.2976165,1673937493.1935,27.26704
1673937500.2977924,1673937493.20913,27.44527
1673937500.2979693,1673937493.22475,27.14211
1673937500.472281,1673937493.24038,26.293
1673937500.48592,1673937493.256,24.95872
1673937500.485973,1673937493.27163,23.29639
1673937500.4860342,1673937493.28725,21.50359
1673937500.486067,1673937493.30288,19.75289
1673937500.4860976,1673937493.31851,18.09461
1673937500.4861279,1673937493.33413,16.48757
1673937500.4862168,1673937493.34976,14.82783
1673937500.4862883,1673937493.36538,12.98572
1673937500.4863243,1673937493.38101,10.87861
1673937500.4863565,1673937493.39663,8.527014
1673937500.6525888,1673937493.41226,6.069232
1673937500.653844,1673937493.42789,3.68906
1673937500.65413,1673937493.44351,1.571217
1673937500.6543405,1673937493.45914,-0.2145462
1673937500.654533,1673937493.47476,-1.750469
1673937500.6547184,1673937493.49039,-3.234907
1673937500.654894,1673937493.50601,-4.9106
1673937500.6550713,1673937493.52164,-6.93633
1673937500.655282,1673937493.53727,-9.338984
1673937500.6554716,1673937493.55289,-12.00941
1673937500.6556494,1673937493.56852,-14.77324
1673937500.8140328,1673937493.58414,-17.46113
1673937500.8142295,1673937493.59977,-19.95994
1673937500.8144164,1673937493.61539,-22.19995
1673937500.814596,1673937493.63102,-24.17359
1673937500.8147721,1673937493.64665,-25.97262
1673937500.8149514,1673937493.66227,-27.78819
1673937500.8151271,1673937493.6779,-29.92115
1673937500.8153338,1673937493.69352,-32.70936
1673937500.8155136,1673937493.70915,-36.27776
1673937500.8156886,1673937493.72477,-40.36377
1673937500.8158875,1673937493.7404,-44.22992
1673937500.9907749,1673937493.75603,-46.77964
1673937500.992294,1673937493.77165,-46.90428
1673937500.99319,1673937493.78728,-43.90824
1673937500.9934235,1673937493.8029,-37.74203
1673937500.993622,1673937493.81853,-29.08472
1673937500.9938078,1673937493.83415,-19.0913
1673937500.993988,1673937493.84978,-9.026754
1673937500.9941645,1673937493.86541,0.05038786
1673937500.9943447,1673937493.88103,7.488473
1673937500.99452,1673937493.89666,13.05676
1673937500.995106,1673937493.91228,16.86419
1673937501.1722152,1673937493.92791,19.21394
1673937501.173704,1673937493.94353,20.49731
1673937501.1742601,1673937493.95916,21.10574
1673937501.174479,1673937493.97479,21.36858
1673937501.1746745,1673937493.99041,21.5038
1673937501.174857,1673937494.00604,21.59202
1673937501.1750326,1673937494.02166,21.61916
1673937501.1752508,1673937494.03729,21.52523
1673937501.1754386,1673937494.05291,21.27938
1673937501.175614,1673937494.06854,20.90626
1673937501.1757889,1673937494.08417,20.5087
1673937501.3501813,1673937494.09979,20.21674
1673937501.3513842,1673937494.11542,20.17785
1673937501.351632,1673937494.13104,20.47618
1673937501.3518326,1673937494.14667,21.11473
1673937501.3520544,1673937494.16229,21.99777
1673937501.352254,1673937494.17792,22.94858
1673937501.352433,1673937494.19355,23.76191
1673937501.3526082,1673937494.20917,24.25672
1673937501.3527782,1673937494.2248,24.32451
1673937501.3529549,1673937494.24042,23.90413
1673937501.353132,1673937494.25605,23.01323
1673937501.5075526,1673937494.27167,21.6987
1673937501.5086393,1673937494.2873,20.04617
1673937501.5088778,1673937494.30293,18.19774
1673937501.5090902,1673937494.31855,16.3125
1673937501.5092795,1673937494.33418,14.54677
1673937501.5094886,1673937494.3498,12.98987
1673937501.5097046,1673937494.36543,11.62863
1673937501.5098872,1673937494.38105,10.31962
1673937501.5100677,1673937494.39668,8.912046
1673937501.5102468,1673937494.41231,7.264531
1673937501.510423,1673937494.42793,5.340177
1673937501.6879826,1673937494.44356,3.218445
1673937501.6887848,1673937494.45918,1.062521
1673937501.6897194,1673937494.47481,-0.9373727
1673937501.6899579,1673937494.49043,-2.647496
1673937501.6901577,1673937494.50606,-4.022233
1673937501.690347,1673937494.52169,-5.141046
1673937501.6905293,1673937494.53731,-6.148236
1673937501.6907053,1673937494.55294,-7.247518
1673937501.6908836,1673937494.56856,-8.614216
1673937501.691057,1673937494.58419,-10.35105
1673937501.6912625,1673937494.59982,-12.45033
1673937501.868026,1673937494.61544,-14.79077
1673937501.8683963,1673937494.63107,-17.18295
1673937501.8684533,1673937494.64669,-19.41957
1673937501.868489,1673937494.66232,-21.37062
1673937501.8685262,1673937494.67794,-22.99497
1673937501.8685706,1673937494.69357,-24.37913
1673937501.8687246,1673937494.7092,-25.73898
1673937501.8687632,1673937494.72482,-27.34915
1673937501.8687944,1673937494.74045,-29.45638
1673937501.8688447,1673937494.75607,-32.0743
1673937501.8688948,1673937494.7717,-34.88593
1673937502.0262692,1673937494.78732,-37.14645
1673937502.0266228,1673937494.80295,-37.86055
1673937502.0268362,1673937494.81858,-36.02937
1673937502.027022,1673937494.8342,-30.98244
1673937502.0272,1673937494.84983,-22.67689
1673937502.0274248,1673937494.86545,-11.69016
1673937502.027597,1673937494.88108,0.8752213
1673937502.0277662,1673937494.8967,13.78791
1673937502.0279336,1673937494.91233,25.95883
1673937502.0280979,1673937494.92796,36.68568
1673937502.0282605,1673937494.94358,45.66147
1673937502.184073,1673937494.95921,52.94873
1673937502.1863968,1673937494.97483,58.81433
1673937502.1867294,1673937494.99046,63.58198
1673937502.1869836,1673937495.00608,67.57695
1673937502.1871827,1673937495.02171,70.99641
1673937502.187405,1673937495.03734,73.92154
1673937502.1875772,1673937495.05296,76.32899
1673937502.1877463,1673937495.06859,78.14726
1673937502.1879108,1673937495.08421,79.32386
1673937502.1880803,1673937495.09984,79.9196
1673937502.188248,1673937495.11546,80.04059
1673937502.3627174,1673937495.13109,79.81443
1673937502.363862,1673937495.14672,79.38394
1673937502.3641622,1673937495.16234,78.88714
1673937502.3643653,1673937495.17797,78.54733
1673937502.364544,1673937495.19359,78.70006
1673937502.3647127,1673937495.20922,79.68866
1673937502.3648765,1673937495.22484,81.72346
1673937502.3650436,1673937495.24047,84.72255
1673937502.3652105,1673937495.2561,88.20265
1673937502.3653765,1673937495.27172,91.36246
1673937502.3655393,1673937495.28735,93.34621
1673937502.5432944,1673937495.30297,93.46381
1673937502.5440857,1673937495.3186,91.44945
1673937502.5451949,1673937495.33422,87.51968
1673937502.5454202,1673937495.34985,82.24709
1673937502.5456083,1673937495.36548,76.38544
1673937502.5457876,1673937495.3811,70.65823
1673937502.5459628,1673937495.39673,65.65573
1673937502.5461328,1673937495.41235,61.82123
1673937502.5463037,1673937495.42798,59.50475
1673937502.5464718,1673937495.4436,58.9351
1673937502.5466368,1673937495.45923,60.23828
1673937502.704199,1673937495.47486,63.3493
1673937502.7043855,1673937495.49048,67.88791
1673937502.7045593,1673937495.50611,73.19174
1673937502.7047274,1673937495.52173,78.41071
1673937502.7048955,1673937495.53736,82.72037
1673937502.7050626,1673937495.55298,85.59052
1673937502.7052276,1673937495.56861,86.94846
1673937502.705389,1673937495.58424,87.10059
1673937502.7055523,1673937495.59986,86.55096
1673937502.7057145,1673937495.61549,85.76053
1673937502.7058783,1673937495.63111,84.92252
1673937502.8802829,1673937495.64674,83.97318
1673937502.8813334,1673937495.66236,82.67102
1673937502.8820786,1673937495.67799,80.733
1673937502.8823419,1673937495.69362,77.94156
1673937502.8825386,1673937495.70924,74.13965
1673937502.88272,1673937495.72487,69.18851
1673937502.8828938,1673937495.74049,62.95398
1673937502.8830633,1673937495.75612,55.36841
1673937502.8832626,1673937495.77174,46.4469
1673937502.883441,1673937495.78737,36.35089
1673937502.8836067,1673937495.803,25.302
1673937503.0616896,1673937495.81862,13.47742
1673937503.062541,1673937495.83425,0.9331665
1673937503.0641606,1673937495.84987,-12.39911
1673937503.064436,1673937495.8655,-26.66803
1673937503.0646365,1673937495.88112,-41.99377
1673937503.0648162,1673937495.89675,-58.45953
1673937503.0649884,1673937495.91238,-76.16309
1673937503.065156,1673937495.928,-95.25909
1673937503.0653245,1673937495.94363,-115.9536
1673937503.0654905,1673937495.95925,-138.3898
1673937503.065658,1673937495.97488,-162.4387
1673937503.2183123,1673937495.9905,-187.6327
1673937503.21898,1673937496.00613,-213.2439
1673937503.2192066,1673937496.02176,-238.4012
1673937503.2192717,1673937496.03738,-262.3345
1673937503.2193167,1673937496.05301,-284.4115
1673937503.219358,1673937496.06863,-304.0325
1673937503.2193978,1673937496.08426,-320.5449
1673937503.2194378,1673937496.09988,-333.2313
1673937503.219477,1673937496.11551,-341.378
1673937503.2195156,1673937496.13114,-344.5549
1673937503.219554,1673937496.14676,-342.7723
1673937503.398994,1673937496.16239,-336.4203
1673937503.3997633,1673937496.17801,-326.0223
1673937503.4006681,1673937496.19364,-311.9257
1673937503.4013872,1673937496.20926,-294.0886
1673937503.4017034,1673937496.22489,-272.1027
1673937503.4020088,1673937496.24052,-245.5355
1673937503.4023018,1673937496.25614,-214.1902
1673937503.4025927,1673937496.27177,-178.4737
1673937503.4028816,1673937496.28739,-139.5244
1673937503.4031632,1673937496.30302,-99.21014
1673937503.4034936,1673937496.31864,-59.93536
1673937503.57814,1673937496.33427,-24.26239
1673937503.5785944,1673937496.3499,5.590942
1673937503.5786762,1673937496.36552,28.22266
1673937503.5787258,1673937496.38115,43.28259
1673937503.5787568,1673937496.39677,51.47968
1673937503.5787947,1673937496.4124,54.17413
1673937503.5788405,1673937496.42802,52.93964
1673937503.5788774,1673937496.44365,49.17529
1673937503.578908,1673937496.45928,44.01843
1673937503.5789368,1673937496.4749,38.41211
1673937503.5789654,1673937496.49053,33.26849
1673937503.7581768,1673937496.50615,29.42609
1673937503.7691553,1673937496.52178,27.46906
1673937503.7694647,1673937496.5374,27.49689
1673937503.7696726,1673937496.55303,28.99823
1673937503.7698617,1673937496.56866,31.01263
1673937503.7700653,1673937496.58428,32.44073
1673937503.7702422,1673937496.59991,32.37634
1673937503.7704144,1673937496.61553,30.25079
1673937503.7705817,1673937496.63116,25.82654
1673937503.7707548,1673937496.64678,19.07806
1673937503.7709246,1673937496.66241,10.06866
1673937503.9160402,1673937496.67804,-1.032288
1673937503.9174225,1673937496.69366,-13.92236
1673937503.9177225,1673937496.70929,-28.12781
1673937503.9179306,1673937496.72491,-42.96106
1673937503.9181166,1673937496.74054,-57.59174
1673937503.9182975,1673937496.75617,-71.07941
1673937503.91847,1673937496.77179,-82.43146
1673937503.9186463,1673937496.78742,-90.67773
1673937503.918816,1673937496.80304,-94.99365
1673937503.9189904,1673937496.81867,-94.90271
1673937503.9191575,1673937496.83429,-90.40076
1673937504.1181302,1673937496.84992,-82.03809
1673937504.119281,1673937496.86555,-70.84875
1673937504.1195526,1673937496.88117,-58.15857
1673937504.1198003,1673937496.8968,-45.32727
1673937504.1199894,1673937496.91242,-33.48895
1673937504.1201665,1673937496.92805,-23.37482
1673937504.1203394,1673937496.94367,-15.22717
1673937504.1205096,1673937496.9593,-8.894897
1673937504.120681,1673937496.97493,-3.951111
1673937504.120852,1673937496.99055,0.06958008
1673937504.1210234,1673937497.00618,3.495361
1673937504.2758293,1673937497.0218,6.439331
1673937504.2770035,1673937497.03743,8.8284
1673937504.2772372,1673937497.05305,10.56311
1673937504.2774327,1673937497.06868,11.67899
1673937504.2776122,1673937497.08431,12.41846
1673937504.2777884,1673937497.09993,13.16034
1673937504.2779615,1673937497.11556,14.26495
1673937504.2781322,1673937497.13118,15.92776
1673937504.2783024,1673937497.14681,18.10022
1673937504.2784724,1673937497.16243,20.61606
1673937504.2786448,1673937497.17806,23.2659
1673937504.4327486,1673937497.19369,25.93759
1673937504.434292,1673937497.20931,28.59457
1673937504.4345603,1673937497.22494,31.21222
1673937504.4347587,1673937497.24056,33.67892
1673937504.4349391,1673937497.25619,35.76874
1673937504.4351149,1673937497.27181,37.17523
1673937504.4353173,1673937497.28744,37.63477
1673937504.435494,1673937497.30307,37.03873
1673937504.4356656,1673937497.31869,35.46289
1673937504.435836,1673937497.33432,33.13449
1673937504.4360073,1673937497.34994,30.33853
1673937504.6028326,1673937497.36557,27.33032
1673937504.6030147,1673937497.38119,24.2822
1673937504.6031883,1673937497.39682,21.27377
1673937504.6033938,1673937497.41245,18.30432
1673937504.6035662,1673937497.42807,15.29396
1673937504.6037362,1673937497.4437,12.16093
1673937504.6039062,1673937497.45932,8.83226
1673937504.6040719,1673937497.47495,5.311539
1673937504.604238,1673937497.49057,1.652847
1673937504.6044025,1673937497.5062,-2.04277
1673937504.6045694,1673937497.52183,-5.667236
1673937504.7707438,1673937497.53745,-9.130035
1673937504.7716107,1673937497.55308,-12.39401
1673937504.7726305,1673937497.5687,-15.48944
1673937504.7728992,1673937497.58433,-18.52959
1673937504.7731004,1673937497.59995,-21.71188
1673937504.7732842,1673937497.61558,-25.30125
1673937504.7734642,1673937497.63121,-29.57433
1673937504.7736385,1673937497.64683,-34.68656
1673937504.7738101,1673937497.66246,-40.49409
1673937504.7739818,1673937497.67808,-46.42407
1673937504.7741554,1673937497.69371,-51.47502
1673937504.9507792,1673937497.70933,-54.42149
1673937504.9519062,1673937497.72496,-54.17587
1673937504.952137,1673937497.74059,-50.1471
1673937504.9523268,1673937497.75621,-42.44353
1673937504.9525506,1673937497.77184,-31.87163
1673937504.9527714,1673937497.78746,-19.65939
1673937504.9529464,1673937497.80309,-7.143209
1673937504.9531205,1673937497.81871,4.570313
1673937504.9532902,1673937497.83434,14.82394
1673937504.9534605,1673937497.84997,23.37581
1673937504.9536293,1673937497.86559,30.32978
1673937505.107981,1673937497.88122,35.91788
1673937505.109169,1673937497.89684,40.3679
1673937505.1094375,1673937497.91247,43.82529
1673937505.10964,1673937497.92809,46.35543
1673937505.1098242,1673937497.94372,48.02525
1673937505.1100025,1673937497.95935,48.93439
1673937505.1101747,1673937497.97497,49.28362
1673937505.1103532,1673937497.9906,49.3139
1673937505.1105466,1673937498.00622,49.24911
1673937505.1107216,1673937498.02185,49.22301
1673937505.1108966,1673937498.03747,49.26939
1673937505.2882574,1673937498.0531,49.37244
1673937505.2894976,1673937498.06873,49.52354
1673937505.2897677,1673937498.08435,49.81415
1673937505.2899659,1673937498.09998,50.34238
1673937505.2901473,1673937498.1156,51.17696
1673937505.2903264,1673937498.13123,52.24399
1673937505.2904987,1673937498.14685,53.2986
1673937505.2906704,1673937498.16248,53.96661
1673937505.2908406,1673937498.17811,53.88448
1673937505.2910082,1673937498.19373,52.82364
1673937505.2911758,1673937498.20936,50.79028
1673937505.4677637,1673937498.22498,48.03143
1673937505.4792676,1673937498.24061,44.91461
1673937505.4798956,1673937498.25623,41.7934
1673937505.4801645,1673937498.27186,38.83563
1673937505.4803658,1673937498.28749,36.02704
1673937505.4805477,1673937498.30311,33.20242
1673937505.4807231,1673937498.31874,30.15747
1673937505.4808943,1673937498.33436,26.79099
1673937505.4810693,1673937498.34999,23.15494
1673937505.481237,1673937498.36561,19.43393
1673937505.4814057,1673937498.38124,15.87454
1673937505.625243,1673937498.39687,12.67853
1673937505.62668,1673937498.41249,9.90509
1673937505.6269462,1673937498.42812,7.420013
1673937505.627146,1673937498.44374,4.955078
1673937505.6273694,1673937498.45937,2.158264
1673937505.6275492,1673937498.47499,-1.201965
1673937505.627725,1673937498.49062,-5.09668
1673937505.6279023,1673937498.50625,-9.096985
1673937505.6280713,1673937498.52187,-12.37024
1673937505.6282463,1673937498.5375,-13.86252
1673937505.628417,1673937498.55312,-12.53986
1673937505.8057873,1673937498.56875,-7.723877
1673937505.8068957,1673937498.58437,0.7358398
1673937505.807526,1673937498.6,12.37787
1673937505.807795,1673937498.61563,26.24121
1673937505.8079977,1673937498.63125,41.08499
1673937505.8081784,1673937498.64688,55.65964
1673937505.8083553,1673937498.6625,68.93716
1673937505.808526,1673937498.67813,80.27271
1673937505.8086984,1673937498.69375,89.44702
1673937505.8088691,1673937498.70938,96.56018
1673937505.809036,1673937498.72501,101.8648
1673937505.963087,1673937498.74063,105.61
1673937505.9661577,1673937498.75626,107.9415
1673937505.9664588,1673937498.77188,108.8848
1673937505.9666653,1673937498.78751,108.4169
1673937505.966852,1673937498.80313,106.5517
1673937505.967033,1673937498.81876,103.3456
1673937505.967204,1673937498.83439,98.88199
1673937505.9674218,1673937498.85001,93.22974
1673937505.9675944,1673937498.86564,86.4267
1673937505.967766,1673937498.88126,78.60239
1673937505.9679384,1673937498.89689,70.0863
1673937506.142755,1673937498.91251,61.43344
1673937506.143909,1673937498.92814,53.34637
1673937506.1441395,1673937498.94377,46.48322
1673937506.1443293,1673937498.95939,41.18903
1673937506.1445096,1673937498.97502,37.42239
1673937506.144684,1673937498.99064,34.77805
1673937506.1448574,1673937499.00627,32.65509
1673937506.1450303,1673937499.02189,30.47534
1673937506.1451998,1673937499.03752,27.78186
1673937506.1453686,1673937499.05315,24.29422
1673937506.1455371,1673937499.06877,19.84329
1673937506.3231566,1673937499.0844,14.3736
1673937506.3243659,1673937499.10002,7.956635
1673937506.3246317,1673937499.11565,0.7940979
1673937506.3248377,1673937499.13127,-6.748291
1673937506.3250186,1673937499.1469,-14.23691
1673937506.325195,1673937499.16253,-21.25711
1673937506.325366,1673937499.17815,-27.50684
1673937506.325534,1673937499.19378,-32.81879
1673937506.3257024,1673937499.2094,-37.12448
1673937506.325873,1673937499.22503,-40.44305
1673937506.3260388,1673937499.24065,-42.84671
1673937506.5028937,1673937499.25628,-44.46228
1673937506.5041041,1673937499.27191,-45.42322
1673937506.5044196,1673937499.28753,-45.87634
1673937506.5046337,1673937499.30316,-45.93851
1673937506.5048263,1673937499.31878,-45.72159
1673937506.50501,1673937499.33441,-45.36761
1673937506.505186,1673937499.35003,-44.98709
1673937506.5053604,1673937499.36566,-44.65237
1673937506.5055346,1673937499.38129,-44.29501
1673937506.5057087,1673937499.39691,-43.71198
1673937506.5058837,1673937499.41254,-42.58066
1673937506.6601295,1673937499.42816,-40.56149
1673937506.6609192,1673937499.44379,-37.36829
1673937506.6611135,1673937499.45942,-32.80402
1673937506.661226,1673937499.47504,-26.78201
1673937506.6612647,1673937499.49067,-19.33734
1673937506.661299,1673937499.50629,-10.70615
1673937506.661331,1673937499.52192,-1.414581
1673937506.6613631,1673937499.53754,7.674988
1673937506.6613955,1673937499.55317,15.51505
1673937506.6614268,1673937499.5688,21.11966
1673937506.661459,1673937499.58442,23.86078
1673937506.8401864,1673937499.60005,23.72281
1673937506.8412504,1673937499.61567,21.24219
1673937506.8414834,1673937499.6313,17.30847
1673937506.8416767,1673937499.64692,12.86609
1673937506.8418574,1673937499.66255,8.655365
1673937506.8420355,1673937499.67818,5.084198
1673937506.8422115,1673937499.6938,2.274292
1673937506.8423877,1673937499.70943,0.1706238
1673937506.842562,1673937499.72505,-1.363342
1673937506.8427331,1673937499.74068,-2.465668
1673937506.8429039,1673937499.7563,-3.288147
1673937507.0016475,1673937499.77193,-4.032715
1673937507.0018363,1673937499.78756,-4.941528
1673937507.0020158,1673937499.80318,-6.253845
1673937507.002193,1673937499.81881,-8.144409
1673937507.0023677,1673937499.83443,-10.68134
1673937507.0025444,1673937499.85006,-13.72653
1673937507.0027194,1673937499.86568,-16.98398
1673937507.0028899,1673937499.88131,-20.04425
1673937507.0030615,1673937499.89694,-22.48245
1673937507.0032651,1673937499.91256,-23.9827
1673937507.003447,1673937499.92819,-24.40616
1673937507.178588,1673937499.94381,-23.8475
1673937507.1801972,1673937499.95944,-22.59662
1673937507.180466,1673937499.97506,-21.05856
1673937507.1806858,1673937499.99069,-19.62555
1673937507.1808922,1673937500.00632,-18.54535
1673937507.1810865,1673937500.02194,-17.80426
1673937507.181279,1673937500.03757,-17.10114
1673937507.1814783,1673937500.05319,-15.89679
1673937507.1816676,1673937500.06882,-13.52747
1673937507.1818569,1673937500.08444,-9.418488
1673937507.1820438,1673937500.10007,-3.211426
1673937507.3601804,1673937500.1157,5.105225
1673937507.3616872,1673937500.13132,15.20392
1673937507.361989,1673937500.14695,26.44852
1673937507.3622143,1673937500.16257,38.00961
1673937507.3624284,1673937500.1782,49.02969
1673937507.3626287,1673937500.19382,58.72849
1673937507.362806,1673937500.20945,66.60394
1673937507.3629932,1673937500.22508,72.46509
1673937507.3631897,1673937500.2407,76.46436
1673937507.3634207,1673937500.25633,78.99731
1673937507.363609,1673937500.27195,80.56775
1673937507.515747,1673937500.28758,81.58286
1673937507.5169232,1673937500.3032,82.28281
1673937507.5172215,1673937500.31883,82.70538
1673937507.517452,1673937500.33446,82.71899
1673937507.5176554,1673937500.35008,82.18109
1673937507.5178516,1673937500.36571,81.04251
1673937507.5180426,1673937500.38133,79.3978
1673937507.5182304,1673937500.39696,77.51694
1673937507.5184152,1673937500.41258,75.81689
1673937507.5186102,1673937500.42821,74.76004
1673937507.518798,1673937500.44384,74.73654
1673937507.6952875,1673937500.45946,75.8454
1673937507.6963696,1673937500.47509,77.70538
1673937507.696605,1673937500.49071,79.38153
1673937507.6968188,1673937500.50634,79.49036
1673937507.6970127,1673937500.52196,76.51962
1673937507.6971896,1673937500.53759,69.28442
1673937507.697375,1673937500.55322,57.39731
1673937507.6975577,1673937500.56884,41.51535
1673937507.69775,1673937500.58447,23.25449
1673937507.6979356,1673937500.60009,4.754364
1673937507.69812,1673937500.61572,-11.9754
1673937507.8569598,1673937500.63134,-25.54706
1673937507.8571632,1673937500.64697,-35.48718
1673937507.8573542,1673937500.6626,-42.14162
1673937507.8575416,1673937500.67822,-46.36436
1673937507.8577309,1673937500.69385,-49.25648
1673937507.857907,1673937500.70947,-51.93466
1673937507.8580923,1673937500.7251,-55.50082
1673937507.8582757,1673937500.74072,-60.86316
1673937507.85846,1673937500.75635,-68.58595
1673937507.8586435,1673937500.77198,-78.55635
1673937507.8588266,1673937500.7876,-89.84242
1673937508.0552716,1673937500.80323,-100.7569
1673937508.056353,1673937500.81885,-109.2669
1673937508.0565817,1673937500.83448,-113.5938
1673937508.0568104,1673937500.8501,-112.7829
1673937508.0570095,1673937500.86573,-106.9984
1673937508.057195,1673937500.88136,-97.43021
1673937508.0573814,1673937500.89698,-85.94485
1673937508.0575736,1673937500.91261,-74.6171
1673937508.0577629,1673937500.92823,-65.27174
1673937508.057948,1673937500.94386,-59.15707
1673937508.058133,1673937500.95948,-56.70593
1673937508.2130263,1673937500.97511,-57.46429
1673937508.2197008,1673937500.99074,-60.20865
1673937508.2200198,1673937501.00636,-63.19527
1673937508.2202432,1673937501.02199,-64.55125
1673937508.2204514,1673937501.03761,-62.76567
1673937508.2206745,1673937501.05324,-57.0446
1673937508.2208753,1673937501.06886,-47.4984
1673937508.2210546,1673937501.08449,-35.04007
1673937508.2212405,1673937501.10012,-21.06552
1673937508.2214274,1673937501.11574,-7.04393
1673937508.2216249,1673937501.13137,5.855713
1673937508.3703048,1673937501.14699,16.955
1673937508.3713825,1673937501.16262,26.09094
1673937508.3716226,1673937501.17824,33.44549
1673937508.3718305,1673937501.19387,39.38839
1673937508.3720262,1673937501.2095,44.26238
1673937508.3722153,1673937501.22512,48.3157
1673937508.3724024,1673937501.24075,51.67623
1673937508.3725922,1673937501.25637,54.39152
1673937508.3727794,1673937501.272,56.4838
1673937508.3729768,1673937501.28762,58.00012
1673937508.3731642,1673937501.30325,59.00964
1673937508.5536308,1673937501.31888,59.58472
1673937508.5538495,1673937501.3345,59.81516
1673937508.5540447,1673937501.35013,59.77393
1673937508.5542357,1673937501.36575,59.48003
1673937508.5544238,1673937501.38138,58.85277
1673937508.5545976,1673937501.397,57.65648
1673937508.5547795,1673937501.41263,55.50594
1673937508.554962,1673937501.42826,52.02103
1673937508.5551558,1673937501.44388,46.93326
1673937508.5553756,1673937501.45951,40.28078
1673937508.5555656,1673937501.47513,32.52655
1673937508.7302268,1673937501.49076,24.4672
1673937508.7306535,1673937501.50638,17.03747
1673937508.7307143,1673937501.52201,10.99028
1673937508.7307591,1673937501.53764,6.565483
1673937508.7307994,1673937501.55326,3.338676
1673937508.7308373,1673937501.56889,0.3139687
1673937508.7308736,1673937501.58451,-3.764175
1673937508.7309136,1673937501.60014,-9.927017
1673937508.7309518,1673937501.61577,-18.51432
1673937508.7309892,1673937501.63139,-28.93361
1673937508.731027,1673937501.64702,-39.66922
1673937508.8876865,1673937501.66264,-48.67921
1673937508.8945575,1673937501.67827,-54.01099
1673937508.89488,1673937501.69389,-54.36887
1673937508.8951023,1673937501.70952,-49.54585
1673937508.8953419,1673937501.72515,-40.4804
1673937508.8955414,1673937501.74077,-29.00469
1673937508.8957334,1673937501.7564,-17.31063
1673937508.8959215,1673937501.77202,-7.403736
1673937508.8961174,1673937501.78765,-0.6091728
1673937508.8963134,1673937501.80327,2.611264
1673937508.896498,1673937501.8189,2.570507
1673937509.0685947,1673937501.83453,0.08153868
1673937509.0698957,1673937501.85015,-3.878604
1673937509.0704553,1673937501.86578,-8.444699
1673937509.0706942,1673937501.8814,-12.97203
1673937509.0711117,1673937501.89703,-17.03531
1673937509.0713973,1673937501.91265,-20.46251
1673937509.0716045,1673937501.92828,-23.31612
1673937509.0718017,1673937501.94391,-25.86865
1673937509.07199,1673937501.95953,-28.50686
1673937509.072174,1673937501.97516,-31.44787
1673937509.0723696,1673937501.99078,-34.50275
1673937509.2491221,1673937502.00641,-36.98304
1673937509.249819,1673937502.02203,-37.83228
1673937509.2507935,1673937502.03766,-36.04791
1673937509.2510557,1673937502.05329,-31.15028
1673937509.2512805,1673937502.06891,-23.48004
1673937509.2514703,1673937502.08454,-14.13336
1673937509.2516434,1673937502.10016,-4.606838
1673937509.2518108,1673937502.11579,3.729042
1673937509.2519915,1673937502.13141,9.984684
1673937509.2521548,1673937502.14704,13.90522
1673937509.252318,1673937502.16267,15.72827
1673937509.4065313,1673937502.17829,15.95879
1673937509.415165,1673937502.19392,15.15755
1673937509.4156785,1673937502.20954,13.82912
1673937509.4159014,1673937502.22517,12.39199
1673937509.4160867,1673937502.24079,11.16407
1673937509.4162629,1673937502.25642,10.37196
1673937509.4164593,1673937502.27205,10.1171
1673937509.4166296,1673937502.28767,10.39365
1673937509.4167967,1673937502.3033,11.12025
1673937509.4169643,1673937502.31892,12.23867
1673937509.4171293,1673937502.33455,13.74049
1673937509.586185,1673937502.35017,15.70568
1673937509.5873144,1673937502.3658,18.23668
1673937509.5875418,1673937502.38143,21.36237
1673937509.5877264,1673937502.39705,24.9355
1673937509.5878992,1673937502.41268,28.56003
1673937509.5880656,1673937502.4283,31.65269
1673937509.5882304,1673937502.44393,33.54759
1673937509.5883942,1673937502.45955,33.71962
1673937509.5885584,1673937502.47518,31.96277
1673937509.5887225,1673937502.49081,28.50706
1673937509.588886,1673937502.50643,23.91965
1673937509.766415,1673937502.52206,18.86648
1673937509.7671363,1673937502.53768,13.83374
1673937509.768049,1673937502.55331,8.953682
1673937509.7682726,1673937502.56893,4.016815
1673937509.768459,1673937502.58456,-1.316513
1673937509.7686334,1673937502.60019,-7.220253
1673937509.7688015,1673937502.61581,-13.53273
1673937509.768967,1673937502.63144,-19.77576
1673937509.7691326,1673937502.64706,-25.33818
1673937509.7692995,1673937502.66269,-29.73677
1673937509.769464,1673937502.67831,-32.75755
1673937509.9228075,1673937502.69394,-34.52762
1673937509.923921,1673937502.70957,-35.35847
1673937509.9241447,1673937502.72519,-35.64073
1673937509.9243336,1673937502.74082,-35.70987
1673937509.9245083,1673937502.75644,-35.88461
1673937509.9246788,1673937502.77207,-36.50352
1673937509.9248476,1673937502.78769,-37.92134
1673937509.9250145,1673937502.80332,-40.5056
1673937509.9251819,1673937502.81895,-44.44124
1673937509.9253461,1673937502.83457,-49.67366
1673937509.925512,1673937502.8502,-55.76498
1673937510.1027973,1673937502.86582,-61.97583
1673937510.1039646,1673937502.88145,-67.37294
1673937510.1042418,1673937502.89707,-70.99159
1673937510.104442,1673937502.9127,-71.97282
1673937510.1046195,1673937502.92833,-69.64722
1673937510.1047907,1673937502.94395,-63.67133
1673937510.104958,1673937502.95958,-54.10265
1673937510.105123,1673937502.9752,-41.55356
1673937510.1052895,1673937502.99083,-27.09633
1673937510.1054535,1673937503.00645,-12.11847
1673937510.105617,1673937503.02208,1.986954
1673937510.2837017,1673937503.03771,14.20094
1673937510.2848923,1673937503.05333,24.07272
1673937510.2851853,1673937503.06896,31.69397
1673937510.285386,1673937503.08458,37.45656
1673937510.2855654,1673937503.10021,41.75922
1673937510.2857358,1673937503.11583,44.77171
1673937510.2859101,1673937503.13146,46.47052
1673937510.2861574,1673937503.14709,46.76413
1673937510.2863443,1673937503.16271,45.62392
1673937510.2865586,1673937503.17834,43.22908
1673937510.2867444,1673937503.19396,39.88425
1673937510.4407291,1673937503.20959,35.95151
1673937510.4443371,1673937503.22521,31.73582
1673937510.4446352,1673937503.24084,27.47137
1673937510.4448376,1673937503.25647,23.29901
1673937510.4450204,1673937503.27209,19.34026
1673937510.4451938,1673937503.28772,15.68013
1673937510.4453633,1673937503.30334,12.35425
1673937510.4455311,1673937503.31897,9.33049
1673937510.4456978,1673937503.33459,6.500977
1673937510.4458616,1673937503.35022,3.710144
1673937510.446025,1673937503.36585,0.8150787
1673937510.6206067,1673937503.38147,-2.280533
1673937510.6218076,1673937503.3971,-5.647491
1673937510.6221032,1673937503.41272,-9.317017
1673937510.6223056,1673937503.42835,-13.30708
1673937510.622488,1673937503.44397,-17.58896
1673937510.6226635,1673937503.4596,-22.02107
1673937510.6228318,1673937503.47523,-26.34874
1673937510.622998,1673937503.49085,-30.25694
1673937510.6231632,1673937503.50648,-33.48814
1673937510.6233633,1673937503.5221,-35.94496
1673937510.6235323,1673937503.53773,-37.74083
1673937510.7783065,1673937503.55335,-39.11803
1673937510.7801247,1673937503.56898,-40.32974
1673937510.7804222,1673937503.58461,-41.51509
1673937510.780625,1673937503.60023,-42.64204
1673937510.780807,1673937503.61586,-43.58771
1673937510.7809784,1673937503.63148,-44.2494
1673937510.7811465,1673937503.64711,-44.61665
1673937510.7813141,1673937503.66273,-44.76363
1673937510.7814796,1673937503.67836,-44.78387
1673937510.7816682,1673937503.69399,-44.71361
1673937510.7818375,1673937503.70961,-44.54913
1673937510.9588609,1673937503.72524,-44.26878
1673937510.960038,1673937503.74086,-43.89104
1673937510.960335,1673937503.75649,-43.50798
1673937510.9605405,1673937503.77211,-43.26602
1673937510.9607215,1673937503.78774,-43.28804
1673937510.9608955,1673937503.80337,-43.60641
1673937510.9610643,1673937503.81899,-44.14784
1673937510.9612317,1673937503.83462,-44.73975
1673937510.9613974,1673937503.85024,-45.21768
1673937510.961565,1673937503.86587,-45.50386
1673937510.9617314,1673937503.8815,-45.65894
1673937511.1378143,1673937503.89712,-45.88857
1673937511.138889,1673937503.91275,-46.52948
1673937511.1391506,1673937503.92837,-47.92343
1673937511.139388,1673937503.944,-50.27651
1673937511.1395733,1673937503.95962,-53.49393
1673937511.1397476,1673937503.97525,-57.02272
1673937511.1399138,1673937503.99088,-59.84975
1673937511.1400802,1673937504.0065,-60.68498
1673937511.140246,1673937504.02213,-58.33808
1673937511.1404102,1673937504.03775,-52.14619
1673937511.1405756,1673937504.05338,-42.27267
1673937511.2960696,1673937504.069,-29.71932
1673937511.2972155,1673937504.08463,-16.03114
1673937511.2974882,1673937504.10026,-2.792442
1673937511.2976859,1673937504.11588,8.824821
1673937511.2978616,1673937504.13151,18.30881
1673937511.2980335,1673937504.14713,25.70946
1673937511.298199,1673937504.16276,31.38285
1673937511.298363,1673937504.17838,35.66157
1673937511.298527,1673937504.19401,38.73613
1673937511.2986908,1673937504.20964,40.67064
1673937511.2988546,1673937504.22526,41.53596
1673937511.4764116,1673937504.24089,41.51225
1673937511.477598,1673937504.25651,40.92702
1673937511.4778953,1673937504.27214,40.13458
1673937511.4781013,1673937504.28776,39.41315
1673937511.4782867,1673937504.30339,38.90258
1673937511.4784627,1673937504.31902,38.61218
1673937511.4786322,1673937504.33464,38.5321
1673937511.4787993,1673937504.35027,38.69676
1673937511.478965,1673937504.36589,39.20223
1673937511.479129,1673937504.38152,40.13557
1673937511.479331,1673937504.39714,41.50762
1673937511.6789427,1673937504.41277,43.17176
1673937511.6807163,1673937504.4284,44.8496
1673937511.6810167,1673937504.44402,46.2073
1673937511.681221,1673937504.45965,46.94998
1673937511.6814003,1673937504.47527,46.90982
1673937511.6815736,1673937504.4909,46.09741
1673937511.6817415,1673937504.50652,44.66824
1673937511.6819072,1673937504.52215,42.85347
1673937511.682075,1673937504.53778,40.8807
1673937511.6822393,1673937504.5534,38.91368
1673937511.6824076,1673937504.56903,37.00671
1673937511.8601544,1673937504.58465,35.10982
1673937511.86188,1673937504.60028,33.10415
1673937511.8626354,1673937504.6159,30.84301
1673937511.8633132,1673937504.63153,28.22739
1673937511.863545,1673937504.64716,25.24477
1673937511.8637335,1673937504.66278,21.99668
1673937511.863907,1673937504.67841,18.66895
1673937511.8640742,1673937504.69403,15.50145
1673937511.8642395,1673937504.70966,12.71058
1673937511.8644063,1673937504.72528,10.43553
1673937511.8645718,1673937504.74091,8.647583
1673937511.993396,1673937504.75654,7.163368
1673937512.003874,1673937504.77216,5.630676
1673937512.0041728,1673937504.78779,3.650208
1673937512.0043747,1673937504.80341,0.9271698
1673937512.0045574,1673937504.81904,-2.611862
1673937512.0047295,1673937504.83466,-6.746086
1673937512.004898,1673937504.85029,-11.05293
1673937512.0050683,1673937504.86592,-15.03297
1673937512.0052364,1673937504.88154,-18.34835
1673937512.0054054,1673937504.89717,-20.948
1673937512.0055714,1673937504.91279,-23.10146
1673937512.1510832,1673937504.92842,-25.30166
1673937512.1521628,1673937504.94404,-28.064
1673937512.1524253,1673937504.95967,-31.72569
1673937512.1526217,1673937504.9753,-36.30659
1673937512.152873,1673937504.99092,-41.37248
1673937512.15308,1673937505.00655,-46.03258
1673937512.1533027,1673937505.02217,-49.09418
1673937512.1534896,1673937505.0378,-49.29942
1673937512.1536694,1673937505.05342,-45.73882
1673937512.1538835,1673937505.06905,-38.18378
1673937512.1540575,1673937505.08468,-27.24156
1673937512.3310177,1673937505.1003,-14.21626
1673937512.3323123,1673937505.11593,-0.7458191
1673937512.3326101,1673937505.13155,11.72244
1673937512.332815,1673937505.14718,22.26991
1673937512.3329988,1673937505.1628,30.59813
1673937512.3331764,1673937505.17843,36.87891
1673937512.333345,1673937505.19406,41.47426
1673937512.333511,1673937505.20968,44.66034
1673937512.3336792,1673937505.22531,46.58977
1673937512.333848,1673937505.24093,47.33717
1673937512.3340144,1673937505.25656,47.03369
1673937512.5118978,1673937505.27218,45.96387
1673937512.5122206,1673937505.28781,44.52142
1673937512.512428,1673937505.30344,43.11545
1673937512.5126095,1673937505.31906,42.07254
1673937512.5127864,1673937505.33469,41.56624
1673937512.5129557,1673937505.35031,41.61014
1673937512.5131254,1673937505.36594,42.16577
1673937512.5132911,1673937505.38156,43.1698
1673937512.5134563,1673937505.39719,44.59212
1673937512.513624,1673937505.41282,46.44278
1673937512.51379,1673937505.42844,48.70229
1673937512.669081,1673937505.44407,51.28209
1673937512.6729355,1673937505.45969,54.01981
1673937512.6732342,1673937505.47532,56.69205
1673937512.6734393,1673937505.49094,59.06429
1673937512.673624,1673937505.50657,60.94644
1673937512.673798,1673937505.5222,62.22339
1673937512.6739633,1673937505.53782,62.83319
1673937512.6741297,1673937505.55345,62.82263
1673937512.6742942,1673937505.56907,62.25606
1673937512.6744568,1673937505.5847,61.24104
1673937512.6746175,1673937505.60032,59.91879
1673937512.848519,1673937505.61595,58.46097
1673937512.850143,1673937505.63158,57.03815
1673937512.8504364,1673937505.6472,55.77858
1673937512.8506393,1673937505.66283,54.6523
1673937512.8508217,1673937505.67845,53.3828
1673937512.8509953,1673937505.69408,51.50484
1673937512.851163,1673937505.7097,48.46381
1673937512.8513598,1673937505.72533,43.85676
1673937512.8515275,1673937505.74096,37.61868
1673937512.8516939,1673937505.75658,30.0293
1673937512.8518581,1673937505.77221,21.61451
1673937513.027961,1673937505.78783,12.91332
1673937513.0290294,1673937505.80346,4.30899
1673937513.0292916,1673937505.81908,-4.033829
1673937513.0294867,1673937505.83471,-12.11048
1673937513.0296662,1673937505.85034,-20.00344
1673937513.0298374,1673937505.86596,-27.80315
1673937513.0300055,1673937505.88159,-35.59007
1673937513.0301685,1673937505.89721,-43.41973
1673937513.0303333,1673937505.91284,-51.16559
1673937513.0304985,1673937505.92846,-58.38987
1673937513.0306606,1673937505.94409,-64.33363
1673937513.1896107,1673937505.95972,-68.05553
1673937513.1898003,1673937505.97534,-68.74866
1673937513.1899767,1673937505.99097,-66.10091
1673937513.190148,1673937506.00659,-60.47005
1673937513.190316,1673937506.02222,-52.85443
1673937513.1904817,1673937506.03784,-44.60889
1673937513.190659,1673937506.05347,-37.09819
1673937513.1908238,1673937506.0691,-31.38733
1673937513.1909883,1673937506.08472,-28.10155
1673937513.1911545,1673937506.10035,-27.38963
1673937513.1913533,1673937506.11597,-28.92385
1673937513.366745,1673937506.1316,-31.96808
1673937513.368227,1673937506.14722,-35.44415
1673937513.3685043,1673937506.16285,-38.13618
1673937513.3687036,1673937506.17848,-38.93559
1673937513.368884,1673937506.1941,-37.17927
1673937513.3690584,1673937506.20973,-32.94823
1673937513.3692284,1673937506.22535,-27.07467
1673937513.3693972,1673937506.24098,-20.889
1673937513.3695657,1673937506.2566,-15.77995
1673937513.3697329,1673937506.27223,-12.65043
1673937513.3698964,1673937506.28786,-11.55655
1673937513.5462737,1673937506.30348,-11.68534
1673937513.5477877,1673937506.31911,-11.65616
1673937513.5480137,1673937506.33473,-10.12531
1673937513.5482035,1673937506.35036,-6.394701
1673937513.5483778,1673937506.36598,-0.7935419
1673937513.5485492,1673937506.38161,5.381567
1673937513.548718,1673937506.39724,10.3008
1673937513.5488858,1673937506.41286,12.27468
1673937513.5490544,1673937506.42849,10.36645
1673937513.5492206,1673937506.44411,4.713375
1673937513.5493836,1673937506.45974,-3.560564
1673937513.703848,1673937506.47537,-12.70481
1673937513.7044098,1673937506.49099,-20.86937
1673937513.7053044,1673937506.50662,-26.50567
1673937513.7061076,1673937506.52224,-28.65281
1673937513.7063942,1673937506.53787,-26.9928
1673937513.7065938,1673937506.55349,-21.8229
1673937513.7067714,1673937506.56912,-13.93323
1673937513.7069426,1673937506.58475,-4.546125
1673937513.7071114,1673937506.60037,4.899956
1673937513.7073112,1673937506.616,12.96801
1673937513.7074876,1673937506.63162,18.51974
1673937513.8880806,1673937506.64725,20.97279
1673937513.888249,1673937506.66287,20.38847
1673937513.8884156,1673937506.6785,17.41517
1673937513.88858,1673937506.69413,13.08879
1673937513.8887436,1673937506.70975,8.501249
1673937513.8889084,1673937506.72538,4.481287
1673937513.8890743,1673937506.741,1.465275
1673937513.8892376,1673937506.75663,-0.5971699
1673937513.8894053,1673937506.77225,-2.123165
1673937513.8895707,1673937506.78788,-3.704468
1673937513.8897371,1673937506.80351,-5.934288
1673937514.0636742,1673937506.81913,-9.232761
1673937514.0648656,1673937506.83476,-13.73312
1673937514.0651615,1673937506.85038,-19.15948
1673937514.0653667,1673937506.86601,-24.81921
1673937514.0655477,1673937506.88163,-29.63077
1673937514.0657225,1673937506.89726,-32.37653
1673937514.0658958,1673937506.91289,-32.05392
1673937514.0660608,1673937506.92851,-28.2557
1673937514.0662296,1673937506.94414,-21.34828
1673937514.0663967,1673937506.95976,-12.41927
1673937514.0665631,1673937506.97539,-2.945328
1673937514.2439559,1673937506.99101,5.666031
1673937514.2451673,1673937507.00664,12.45695
1673937514.2454607,1673937507.02227,17.089
1673937514.2456644,1673937507.03789,19.7879
1673937514.245845,1673937507.05352,21.11113
1673937514.2460208,1673937507.06914,21.63816
1673937514.2461915,1673937507.08477,21.8325
1673937514.2463589,1673937507.10039,21.95129
1673937514.2465234,1673937507.11602,22.0918
1673937514.2466877,1673937507.13165,22.2676
1673937514.2468536,1673937507.14727,22.48339
1673937514.4012547,1673937507.1629,22.73485
1673937514.4025524,1673937507.17852,22.99017
1673937514.402847,1673937507.19415,23.19441
1673937514.4030497,1673937507.20977,23.28782
1673937514.4032674,1673937507.2254,23.21619
1673937514.4034545,1673937507.24103,23.02283
1673937514.403626,1673937507.25665,22.90213
1673937514.4037921,1673937507.27228,23.14253
1673937514.4039564,1673937507.2879,23.99149
1673937514.4041212,1673937507.30353,25.34675
1673937514.4042823,1673937507.31915,26.65931
1673937514.5583112,1673937507.33478,26.99971
1673937514.5593956,1673937507.35041,25.46863
1673937514.55967,1673937507.36603,21.63924
1673937514.559867,1673937507.38166,15.88268
1673937514.5600476,1673937507.39728,9.306526
1673937514.5602188,1673937507.41291,3.351421
1673937514.5603895,1673937507.42853,-0.7804222
1673937514.5605574,1673937507.44416,-2.546112
1673937514.5607238,1673937507.45979,-2.099411
1673937514.5608885,1673937507.47541,-0.0931778
1673937514.561056,1673937507.49104,2.686363
1673937514.7379153,1673937507.50666,5.517021
1673937514.738933,1673937507.52229,7.783501
1673937514.7391944,1673937507.53791,8.889534
1673937514.739424,1673937507.55354,8.322586
1673937514.7395997,1673937507.56917,5.734634
1673937514.7397702,1673937507.58479,1.18885
1673937514.7399411,1673937507.60042,-4.743523
1673937514.7401085,1673937507.61604,-11.09005
1673937514.7402747,1673937507.63167,-16.79539
1673937514.7404397,1673937507.64729,-21.01179
1673937514.7406042,1673937507.66292,-23.30202
1673937514.9412973,1673937507.67855,-23.6904
1673937514.9430966,1673937507.69417,-22.50457
1673937514.9434278,1673937507.7098,-20.20579
1673937514.9436333,1673937507.72542,-17.24353
1673937514.9438148,1673937507.74105,-14.03918
1673937514.943987,1673937507.75667,-11.02567
1673937514.9441543,1673937507.7723,-8.749237
1673937514.9443223,1673937507.78793,-7.845848
1673937514.9444857,1673937507.80355,-8.92971
1673937514.94465,1673937507.81918,-12.32551
1673937514.9448123,1673937507.8348,-17.84753
1673937515.0794895,1673937507.85043,-24.69667
1673937515.0796735,1673937507.86605,-31.62539
1673937515.0798435,1673937507.88168,-37.30775
1673937515.0800107,1673937507.89731,-40.73882
1673937515.0801756,1673937507.91293,-41.52402
1673937515.0803387,1673937507.92856,-39.89992
1673937515.0805278,1673937507.94418,-36.57898
1673937515.0806978,1673937507.95981,-32.39931
1673937515.0808618,1673937507.97543,-28.06766
1673937515.0810268,1673937507.99106,-24.04713
1673937515.0811868,1673937508.00669,-20.55521
1673937515.256321,1673937508.02231,-17.67104
1673937515.2566235,1673937508.03794,-15.45357
1673937515.2568266,1673937508.05356,-13.92763
1673937515.25701,1673937508.06919,-13.06737
1673937515.2571857,1673937508.08481,-12.74133
1673937515.2573564,1673937508.10044,-12.71557
1673937515.257521,1673937508.11607,-12.6466
1673937515.257686,1673937508.13169,-12.18002
1673937515.2578502,1673937508.14732,-10.99931
1673937515.258014,1673937508.16294,-8.934532
1673937515.2581744,1673937508.17857,-5.992821
1673937515.4376426,1673937508.19419,-2.373276
1673937515.4402134,1673937508.20982,1.6213
1673937515.4406838,1673937508.22545,5.670097
1673937515.4410548,1673937508.24107,9.554329
1673937515.4412494,1673937508.2567,13.19234
1673937515.4414444,1673937508.27232,16.60571
1673937515.4416425,1673937508.28795,19.80853
1673937515.4418294,1673937508.30357,22.70827
1673937515.4420114,1673937508.3192,25.03127
1673937515.4421816,1673937508.33483,26.40913
1673937515.442359,1673937508.35045,26.49845
1673937515.5934331,1673937508.36608,25.12975
1673937515.594494,1673937508.3817,22.43723
1673937515.5947719,1673937508.39733,18.83037
1673937515.59499,1673937508.41295,14.87967
1673937515.5951898,1673937508.42858,11.12018
1673937515.5954268,1673937508.44421,7.931458
1673937515.5956202,1673937508.45983,5.436325
1673937515.5958087,1673937508.47546,3.588715
1673937515.5959969,1673937508.49108,2.245102
1673937515.5961814,1673937508.50671,1.292076
1673937515.5963736,1673937508.52233,0.7219238
1673937515.7739234,1673937508.53796,0.6441116
1673937515.7750049,1673937508.55359,1.193062
1673937515.7836206,1673937508.56921,2.402618
1673937515.783847,1673937508.58484,4.142761
1673937515.7840497,1673937508.60046,6.069107
1673937515.7842464,1673937508.61609,7.74942
1673937515.784432,1673937508.63171,8.754654
1673937515.7846181,1673937508.64734,8.766388
1673937515.784803,1673937508.66297,7.663345
1673937515.7849956,1673937508.67859,5.521255
1673937515.7851794,1673937508.69422,2.658295
1673937515.9308305,1673937508.70984,-0.3412628
1673937515.931984,1673937508.72547,-2.707367
1673937515.9322665,1673937508.7411,-3.628662
1673937515.932489,1673937508.75672,-2.480972
1673937515.932692,1673937508.77235,0.9092102
1673937515.9328902,1673937508.78797,6.137985
1673937515.9330797,1673937508.8036,12.3586
1673937515.9332697,1673937508.81922,18.5775
1673937515.9334707,1673937508.83485,24.01788
1673937515.9336636,1673937508.85048,28.36559
1673937515.9338515,1673937508.8661,31.72791
1673937516.1332335,1673937508.88173,34.38524
1673937516.1342938,1673937508.89735,36.5211
1673937516.1345282,1673937508.91298,38.08757
1673937516.1347399,1673937508.9286,38.79495
1673937516.1349413,1673937508.94423,38.34001
1673937516.1351347,1673937508.95986,36.49371
1673937516.135365,1673937508.97548,33.15422
1673937516.1355724,1673937508.99111,28.32066
1673937516.135765,1673937509.00673,22.11848
1673937516.1359525,1673937509.02236,14.81396
1673937516.1361399,1673937509.03798,6.896072
1673937516.2985468,1673937509.05361,-0.9424133
1673937516.2997313,1673937509.06924,-7.91687
1673937516.3000085,1673937509.08486,-13.38222
1673937516.30023,1673937509.10049,-17.01732
1673937516.300431,1673937509.11611,-18.88628
1673937516.3006248,1673937509.13174,-19.4012
1673937516.300815,1673937509.14736,-19.09187
1673937516.3010018,1673937509.16299,-18.45778
1673937516.3011875,1673937509.17862,-17.86234
1673937516.3013823,1673937509.19424,-17.5526
1673937516.3015673,1673937509.20987,-17.67155
1673937516.4487226,1673937509.22549,-18.33403
1673937516.4494605,1673937509.24112,-19.59081
1673937516.4503777,1673937509.25674,-21.4109
1673937516.450613,1673937509.27237,-23.65321
1673937516.4508169,1673937509.288,-26.07828
1673937516.4510243,1673937509.30362,-28.40024
1673937516.451248,1673937509.31925,-30.35594
1673937516.4514532,1673937509.33487,-31.77948
1673937516.451649,1673937509.3505,-32.64304
1673937516.4518769,1673937509.36612,-33.04886
1673937516.45207,1673937509.38175,-33.14252
1673937516.6279411,1673937509.39738,-33.05025
1673937516.628997,1673937509.413,-32.80289
1673937516.629239,1673937509.42863,-32.41528
1673937516.629453,1673937509.44425,-31.95172
1673937516.6296523,1673937509.45988,-31.57967
1673937516.6298463,1673937509.4755,-31.49213
1673937516.6300352,1673937509.49113,-31.83966
1673937516.6302218,1673937509.50676,-32.60571
1673937516.6304178,1673937509.52238,-33.64017
1673937516.6306043,1673937509.53801,-34.73793
1673937516.6307907,1673937509.55363,-35.79491
1673937516.8083463,1673937509.56926,-36.85281
1673937516.8095024,1673937509.58488,-38.11227
1673937516.8098028,1673937509.60051,-39.79662
1673937516.8100233,1673937509.61614,-42.03984
1673937516.8102267,1673937509.63176,-44.79047
1673937516.8104224,1673937509.64739,-47.79036
1673937516.810611,1673937509.66301,-50.5589
1673937516.8107986,1673937509.67864,-52.39291
1673937516.8109846,1673937509.69426,-52.4416
1673937516.8111799,1673937509.70989,-49.81586
1673937516.8114128,1673937509.72552,-43.86865
1673937516.9656732,1673937509.74114,-34.42421
1673937516.9667323,1673937509.75677,-21.94652
1673937516.9670043,1673937509.77239,-7.501251
1673937516.9672678,1673937509.78802,7.521149
1673937516.9674919,1673937509.80364,21.75911
1673937516.9676733,1673937509.81927,34.16405
1673937516.9678645,1673937509.8349,44.09708
1673937516.9680548,1673937509.85052,51.28214
1673937516.9682424,1673937509.86615,55.62587
1673937516.9684296,1673937509.88177,57.17709
1673937516.968621,1673937509.8974,56.11615
1673937517.145187,1673937509.91302,52.84428
1673937517.1456017,1673937509.92865,48.0235
1673937517.1456714,1673937509.94428,42.47232
1673937517.1457193,1673937509.9599,36.99232
1673937517.1457615,1673937509.97553,32.16728
1673937517.1458015,1673937509.99115,28.26093
1673937517.1458414,1673937510.00678,25.2838
1673937517.1458802,1673937510.0224,23.13652
1673937517.145919,1673937510.03803,21.82545
1673937517.1459577,1673937510.05366,21.49953
1673937517.1459968,1673937510.06928,22.4136
1673937517.325953,1673937510.08491,24.74049
1673937517.3270397,1673937510.10053,28.43295
1673937517.3273585,1673937510.11616,33.12321
1673937517.3275704,1673937510.13178,38.24396
1673937517.3277545,1673937510.14741,43.22478
1673937517.3279278,1673937510.16304,47.64087
1673937517.3280973,1673937510.17866,51.40663
1673937517.3282633,1673937510.19429,54.71291
1673937517.3284285,1673937510.20991,57.94853
1673937517.3285928,1673937510.22554,61.4798
1673937517.328759,1673937510.24116,65.55244
1673937517.483891,1673937510.25679,70.15329
1673937517.4849877,1673937510.27242,74.93408
1673937517.4852529,1673937510.28804,79.22351
1673937517.485448,1673937510.30367,82.11676
1673937517.4856236,1673937510.31929,82.67519
1673937517.485795,1673937510.33492,80.18526
1673937517.4859643,1673937510.35054,74.45831
1673937517.4861312,1673937510.36617,65.89609
1673937517.486301,1673937510.3818,55.41031
1673937517.4864674,1673937510.39742,44.1077
1673937517.4866319,1673937510.41305,32.88239
1673937517.6633277,1673937510.42867,22.19847
1673937517.6714296,1673937510.4443,12.06456
1673937517.6716967,1673937510.45992,2.271606
1673937517.6717942,1673937510.47555,-7.346039
1673937517.6718636,1673937510.49118,-16.63727
1673937517.671894,1673937510.5068,-25.14778
1673937517.6719494,1673937510.52243,-32.26483
1673937517.671979,1673937510.53805,-37.506
1673937517.6720068,1673937510.55368,-40.7309
1673937517.672035,1673937510.5693,-42.17664
1673937517.6721337,1673937510.58493,-42.36978
1673937517.8435807,1673937510.60056,-41.9024
1673937517.8440015,1673937510.61618,-41.2859
1673937517.8440716,1673937510.63181,-40.79199
1673937517.844116,1673937510.64743,-40.405
1673937517.8441556,1673937510.66306,-39.81253
1673937517.844193,1673937510.67868,-38.5097
1673937517.8442292,1673937510.69431,-35.9118
1673937517.844265,1673937510.70994,-31.56122
1673937517.8443007,1673937510.72556,-25.33047
1673937517.8443367,1673937510.74119,-17.47491
1673937517.8443723,1673937510.75681,-8.574829
1673937518.0005689,1673937510.77244,0.6979675
1673937518.0011222,1673937510.78806,9.808929
1673937518.0011747,1673937510.80369,18.59406
1673937518.0012329,1673937510.81932,27.1864
1673937518.0012856,1673937510.83494,35.79782
1673937518.0013354,1673937510.85057,44.4375
1673937518.0013876,1673937510.86619,52.69601
1673937518.001456,1673937510.88182,59.78247
1673937518.001501,1673937510.89744,64.82257
1673937518.0015285,1673937510.91307,67.15549
1673937518.0015554,1673937510.9287,66.50705
1673937518.180687,1673937510.94432,62.94818
1673937518.181593,1673937510.95995,56.74237
1673937518.1816454,1673937510.97557,48.13391
1673937518.1816804,1673937510.9912,37.34058
1673937518.1817114,1673937511.00682,24.64697
1673937518.1817398,1673937511.02245,10.60229
1673937518.182069,1673937511.03808,-3.866425
1673937518.18212,1673937511.0537,-17.5592
1673937518.1821547,1673937511.06933,-29.33084
1673937518.1822715,1673937511.08495,-38.40283
1673937518.182316,1673937511.10058,-44.6438
1673937518.3605354,1673937511.1162,-48.58585
1673937518.3616602,1673937511.13183,-51.27237
1673937518.3619137,1673937511.14746,-53.99515
1673937518.3621125,1673937511.16308,-57.9231
1673937518.362298,1673937511.17871,-63.789
1673937518.3624732,1673937511.19433,-71.62854
1673937518.3626451,1673937511.20996,-80.71796
1673937518.3628142,1673937511.22558,-89.69528
1673937518.3629842,1673937511.24121,-96.9068
1673937518.363154,1673937511.25684,-100.7873
1673937518.3633633,1673937511.27246,-100.2359
1673937518.5177672,1673937511.28809,-94.89142
1673937518.5182974,1673937511.30371,-85.1752
1673937518.518353,1673937511.31934,-72.19275
1673937518.5184174,1673937511.33496,-57.51428
1673937518.5185242,1673937511.35059,-42.86859
1673937518.5185554,1673937511.36622,-29.81635
1673937518.5185864,1673937511.38184,-19.47202
1673937518.5186343,1673937511.39747,-12.34601
1673937518.5187016,1673937511.41309,-8.356262
1673937518.5187533,1673937511.42872,-6.999664
1673937518.518784,1673937511.44435,-7.632751
1673937518.6987112,1673937511.45997,-9.654846
1673937518.6999497,1673937511.4756,-12.61472
1673937518.7006328,1673937511.49122,-16.15979
1673937518.7008674,1673937511.50685,-19.96371
1673937518.70106,1673937511.52247,-23.7464
1673937518.7012398,1673937511.5381,-27.32538
1673937518.7014148,1673937511.55373,-30.66119
1673937518.7015877,1673937511.56935,-33.89365
1673937518.7017636,1673937511.58498,-37.2236
1673937518.7019353,1673937511.6006,-40.79846
1673937518.7021258,1673937511.61623,-44.6355
1673937518.85592,1673937511.63185,-48.62106
1673937518.856235,1673937511.64748,-52.65051
1673937518.8564496,1673937511.66311,-56.70248
1673937518.8566353,1673937511.67873,-60.85889
1673937518.8568165,1673937511.69436,-65.1741
1673937518.85699,1673937511.70998,-69.48764
1673937518.857162,1673937511.72561,-73.25696
1673937518.857331,1673937511.74123,-75.61896
1673937518.857502,1673937511.75686,-75.63461
1673937518.8576732,1673937511.77249,-72.64325
1673937518.857844,1673937511.78811,-66.60327
1673937519.0355136,1673937511.80374,-58.12839
1673937519.0365853,1673937511.81936,-48.29639
1673937519.036817,1673937511.83499,-38.25613
1673937519.0370016,1673937511.85061,-28.87888
1673937519.037177,1673937511.86624,-20.58273
1673937519.037347,1673937511.88187,-13.42941
1673937519.037513,1673937511.89749,-7.370392
1673937519.037684,1673937511.91312,-2.426971
1673937519.0378504,1673937511.92874,1.252502
1673937519.0380175,1673937511.94437,3.504761
1673937519.0381842,1673937511.95999,4.336823
1673937519.2161155,1673937511.97562,4.007721
1673937519.2176316,1673937511.99125,2.998749
1673937519.217903,1673937512.00687,1.83844
1673937519.2180984,1673937512.0225,0.9741821
1673937519.2182813,1673937512.03812,0.6289368
1673937519.218458,1673937512.05375,0.8409424
1673937519.2186525,1673937512.06937,1.544586
1673937519.2189176,1673937512.085,2.677734
1673937519.2191677,1673937512.10063,4.238129
1673937519.2193987,1673937512.11625,6.279083
1673937519.2195919,1673937512.13188,8.827637
1673937519.3747418,1673937512.1475,11.82156
1673937519.3747923,1673937512.16313,15.06235
1673937519.3748426,1673937512.17875,18.24579
1673937519.374871,1673937512.19438,21.04199
1673937519.3749075,1673937512.21001,23.19141
1673937519.37495,1673937512.22563,24.61746
1673937519.3749967,1673937512.24126,25.38487
1673937519.3750317,1673937512.25688,25.67691
1673937519.375068,1673937512.27251,25.66377
1673937519.3751137,1673937512.28813,25.42392
1673937519.3751516,1673937512.30376,24.91016
1673937519.5539925,1673937512.31939,24.0249
1673937519.5544348,1673937512.33501,22.69
1673937519.5545685,1673937512.35064,20.9066
1673937519.5546136,1673937512.36626,18.76511
1673937519.5546672,1673937512.38189,16.39809
1673937519.554725,1673937512.39751,13.93903
1673937519.554766,1673937512.41314,11.49834
1673937519.5548084,1673937512.42877,9.162445
1673937519.5548625,1673937512.44439,6.967194
1673937519.5549119,1673937512.46002,4.880478
1673937519.5549476,1673937512.47564,2.802673
1673937519.7340279,1673937512.49127,0.5607452
1673937519.735526,1673937512.50689,-2.006531
1673937519.7358286,1673937512.52252,-4.996353
1673937519.736132,1673937512.53815,-8.335648
1673937519.73636,1673937512.55377,-11.82478
1673937519.736542,1673937512.5694,-15.19939
1673937519.736715,1673937512.58502,-18.23801
1673937519.7368872,1673937512.60065,-20.89825
1673937519.7370543,1673937512.61627,-23.31758
1673937519.7372198,1673937512.6319,-25.8111
1673937519.7373865,1673937512.64753,-28.76006
1673937519.8912342,1673937512.66315,-32.4919
1673937519.8919957,1673937512.67878,-37.07748
1673937519.8932664,1673937512.6944,-42.20435
1673937519.893497,1673937512.71003,-47.14331
1673937519.8936877,1673937512.72565,-50.79881
1673937519.893866,1673937512.74128,-52.01952
1673937519.8940377,1673937512.75691,-49.91354
1673937519.8942063,1673937512.77253,-44.15269
1673937519.8943734,1673937512.78816,-35.1034
1673937519.8945413,1673937512.80378,-23.75541
1673937519.8947077,1673937512.81941,-11.42586
1673937520.071142,1673937512.83503,0.5593758
1673937520.0827515,1673937512.85066,11.12464
1673937520.083057,1673937512.86629,19.60541
1673937520.08329,1673937512.88191,25.76114
1673937520.0834827,1673937512.89754,29.71037
1673937520.08366,1673937512.91316,31.82808
1673937520.0838292,1673937512.92879,32.60972
1673937520.083997,1673937512.94441,32.53706
1673937520.0841646,1673937512.96004,31.9963
1673937520.0843306,1673937512.97567,31.25158
1673937520.0844984,1673937512.99129,30.44174
1673937520.2509131,1673937513.00692,29.66187
1673937520.2520568,1673937513.02254,28.98141
1673937520.2523265,1673937513.03817,28.47052
1673937520.2525263,1673937513.05379,28.18589
1673937520.252713,1673937513.06942,28.16201
1673937520.2528906,1673937513.08505,28.43088
1673937520.2530582,1673937513.10067,29.02847
1673937520.2532277,1673937513.1163,29.95826
1673937520.2533967,1673937513.13192,31.19726
1673937520.2535641,1673937513.14755,32.62375
1673937520.2537322,1673937513.16317,34.01965
1673937520.430829,1673937513.1788,35.10842
1673937520.4314516,1673937513.19443,35.66001
1673937520.432793,1673937513.21005,35.5425
1673937520.43302,1673937513.22568,34.77827
1673937520.4332082,1673937513.2413,33.47689
1673937520.4333856,1673937513.25693,31.73737
1673937520.4335568,1673937513.27255,29.63058
1673937520.4337273,1673937513.28818,27.20286
1673937520.4338977,1673937513.30381,24.52139
1673937520.4340675,1673937513.31943,21.71538
1673937520.4342344,1673937513.33506,18.95746
1673937520.5888708,1673937513.35068,16.40085
1673937520.58967,1673937513.36631,14.09346
1673937520.5908468,1673937513.38193,11.98364
1673937520.591073,1673937513.39756,9.919327
1673937520.5912964,1673937513.41319,7.747757
1673937520.5914855,1673937513.42881,5.386551
1673937520.5916574,1673937513.44444,2.819443
1673937520.5918286,1673937513.46006,0.08798218
1673937520.5919979,1673937513.47569,-2.770966
1673937520.5921664,1673937513.49131,-5.732834
1673937520.592334,1673937513.50694,-8.800613
1673937520.7457108,1673937513.52257,-11.92754
1673937520.7462492,1673937513.53819,-15.05017
1673937520.746364,1673937513.55382,-18.10457
1673937520.746428,1673937513.56944,-21.12653
1673937520.746576,1673937513.58507,-24.31245
1673937520.7466636,1673937513.6007,-27.94185
1673937520.7466931,1673937513.61632,-32.23584
1673937520.7467458,1673937513.63195,-37.06445
1673937520.7468183,1673937513.64757,-41.82863
1673937520.7468488,1673937513.6632,-45.45837
1673937520.7468781,1673937513.67882,-46.73567
1673937520.9254658,1673937513.69445,-44.68451
1673937520.9258468,1673937513.71008,-38.9818
1673937520.9259036,1673937513.7257,-30.08989
1673937520.9259481,1673937513.74133,-19.10367
1673937520.9259884,1673937513.75695,-7.40361
1673937520.9261672,1673937513.77258,3.752533
1673937520.9262147,1673937513.7882,13.50137
1673937520.9262564,1673937513.80383,21.45198
1673937520.9262974,1673937513.81946,27.57236
1673937520.9263368,1673937513.83508,32.00192
1673937520.9263744,1673937513.85071,34.95111
1673937521.1280468,1673937513.86633,36.62122
1673937521.133634,1673937513.88196,37.25342
1673937521.1339686,1673937513.89758,37.12952
1673937521.134224,1673937513.91321,36.58643
1673937521.1344674,1673937513.92884,35.95441
1673937521.1346946,1673937513.94446,35.48541
1673937521.1349154,1673937513.96009,35.32507
1673937521.135136,1673937513.97571,35.46359
1673937521.1353893,1673937513.99134,35.79514
1673937521.1356068,1673937514.00696,36.18671
1673937521.1358228,1673937514.02259,36.52927
1673937521.2668014,1673937514.03822,36.76227
1673937521.2669916,1673937514.05384,36.84705
1673937521.2671654,1673937514.06947,36.74075
1673937521.2673714,1673937514.08509,36.35895
1673937521.2675421,1673937514.10072,35.60431
1673937521.2677083,1673937514.11634,34.40939
1673937521.2678726,1673937514.13197,32.79025
1673937521.268035,1673937514.1476,30.82291
1673937521.2681994,1673937514.16322,28.60376
1673937521.2683623,1673937514.17885,26.17233
1673937521.268526,1673937514.19447,23.49783
1673937521.4431105,1673937514.2101,20.50928
1673937521.4443328,1673937514.22572,17.14313
1673937521.444559,1673937514.24135,13.41327
1673937521.4447455,1673937514.25698,9.397736
1673937521.4449177,1673937514.2726,5.264008
1673937521.445088,1673937514.28823,1.214569
1673937521.4452536,1673937514.30385,-2.585632
1673937521.4454215,1673937514.31948,-6.023438
1673937521.4455876,1673937514.3351,-9.076385
1673937521.445752,1673937514.35073,-11.82776
1673937521.4459133,1673937514.36636,-14.50888
1673937521.6241515,1673937514.38198,-17.41507
1673937521.6249943,1673937514.39761,-20.8595
1673937521.625261,1673937514.41323,-24.97528
1673937521.6267085,1673937514.42886,-29.53946
1673937521.6269372,1673937514.44448,-33.90823
1673937521.6271286,1673937514.46011,-37.09308
1673937521.6273553,1673937514.47574,-38.00162
1673937521.627536,1673937514.49136,-35.79919
1673937521.6277032,1673937514.50699,-30.21826
1673937521.6278684,1673937514.52261,-21.63422
1673937521.628035,1673937514.53824,-11.03314
1673937521.7808955,1673937514.55386,0.3201904
1673937521.7819343,1673937514.56949,11.17697
1673937521.7821665,1673937514.58512,20.56854
1673937521.7823558,1673937514.60074,27.91507
1673937521.7825305,1673937514.61637,33.01224
1673937521.7826982,1673937514.63199,35.94937
1673937521.7828665,1673937514.64762,37.03345
1673937521.783033,1673937514.66324,36.75381
1673937521.7831984,1673937514.67887,35.6582
1673937521.7833986,1673937514.6945,34.29147
1673937521.7835636,1673937514.71012,33.07217
1673937521.983816,1673937514.72575,32.2413
1673937521.9851058,1673937514.74137,31.87912
1673937521.9861586,1673937514.757,31.92191
1673937521.986419,1673937514.77262,32.26758
1673937521.986613,1673937514.78825,32.80945
1673937521.986793,1673937514.80388,33.48151
1673937521.9869652,1673937514.8195,34.26202
1673937521.987134,1673937514.83513,35.20712
1673937521.9873369,1673937514.85075,36.4151
1673937521.987507,1673937514.86638,37.94183
1673937521.9876704,1673937514.882,39.74359
1673937522.1180458,1673937514.89763,41.55899
1673937522.1192915,1673937514.91326,42.92902
1673937522.1199405,1673937514.92888,43.3273
1673937522.1201665,1673937514.94451,42.37314
1673937522.120351,1673937514.96013,40.01324
1673937522.1205232,1673937514.97576,36.57257
1673937522.1206918,1673937514.99138,32.62222
1673937522.1208596,1673937515.00701,28.69263
1673937522.1210282,1673937515.02264,25.08621
1673937522.1211958,1673937515.03826,21.74857
1673937522.1213622,1673937515.05389,18.39673
1673937522.2985606,1673937515.06951,14.69464
1673937522.2989268,1673937515.08514,10.43967
1673937522.2990177,1673937515.10076,5.661469
1673937522.2990549,1673937515.11639,0.5572205
1673937522.299089,1673937515.13202,-4.61911
1673937522.2991238,1673937515.14764,-9.683624
1673937522.2992315,1673937515.16327,-14.52234
1673937522.2992835,1673937515.17889,-19.11789
1673937522.2993388,1673937515.19452,-23.48441
1673937522.2993689,1673937515.21014,-27.68411
1673937522.2993987,1673937515.22577,-31.83813
1673937522.5004573,1673937515.2414,-36.10519
1673937522.5007842,1673937515.25702,-40.61688
1673937522.5008373,1673937515.27265,-45.25626
1673937522.5008736,1673937515.28827,-49.54395
1673937522.5009053,1673937515.3039,-52.58939
1673937522.500936,1673937515.31952,-53.32425
1673937522.5009654,1673937515.33515,-50.8299
1673937522.5009954,1673937515.35078,-44.78809
1673937522.5010247,1673937515.3664,-35.67386
1673937522.5010533,1673937515.38203,-24.65576
1673937522.5010822,1673937515.39765,-13.23251
1673937522.6357892,1673937515.41328,-2.728943
1673937522.6368995,1673937515.4289,6.013611
1673937522.637184,1673937515.44453,12.76395
1673937522.6373906,1673937515.46016,17.70859
1673937522.6375785,1673937515.47578,21.21078
1673937522.6377604,1673937515.49141,23.58072
1673937522.637937,1673937515.50703,25.02481
1673937522.638112,1673937515.52266,25.69485
1673937522.638289,1673937515.53828,25.7431
1673937522.6384614,1673937515.55391,25.35605
1673937522.6386318,1673937515.56954,24.73383
1673937522.815802,1673937515.58516,24.03195
1673937522.8168895,1673937515.60079,23.33417
1673937522.817172,1673937515.61641,22.68796
1673937522.8173757,1673937515.63204,22.13113
1673937522.817559,1673937515.64766,21.72137
1673937522.8177352,1673937515.66329,21.53339
1673937522.817908,1673937515.67892,21.60657
1673937522.818079,1673937515.69454,21.93436
1673937522.8182516,1673937515.71017,22.46259
1673937522.8184226,1673937515.72579,23.11511
1673937522.8185909,1673937515.74142,23.79431
1673937522.995801,1673937515.75704,24.37927
1673937522.9968681,1673937515.77267,24.74686
1673937522.9971385,1673937515.7883,24.75946
1673937522.9973438,1673937515.80392,24.33673
1673937522.9975295,1673937515.81955,23.4404
1673937522.9977083,1673937515.83517,22.15305
1673937522.997882,1673937515.8508,20.60342
1673937522.9980547,1673937515.86643,18.93213
1673937522.9982262,1673937515.88205,17.22287
1673937522.9983985,1673937515.89768,15.5155
1673937522.9985683,1673937515.9133,13.80347
1673937523.175832,1673937515.92893,12.06543
1673937523.1769507,1673937515.94455,10.28632
1673937523.1772208,1673937515.96018,8.460999
1673937523.1774259,1673937515.97581,6.635254
1673937523.1776097,1673937515.99143,4.881439
1673937523.177788,1673937516.00706,3.311432
1673937523.1779635,1673937516.02268,2.045288
1673937523.1781359,1673937516.03831,1.14209
1673937523.1783087,1673937516.05393,0.5585327
1673937523.178483,1673937516.06956,0.1402893
1673937523.1786559,1673937516.08519,-0.3258057
1673937523.333052,1673937516.10081,-1.017548
1673937523.3341627,1673937516.11644,-1.967957
1673937523.3344347,1673937516.13206,-3.090027
1673937523.3346398,1673937516.14769,-4.207642
1673937523.3348267,1673937516.16331,-5.157425
1673937523.3350081,1673937516.17894,-5.87886
1673937523.3351846,1673937516.19457,-6.447067
1673937523.3354003,1673937516.21019,-7.013351
1673937523.3355758,1673937516.22582,-7.73674
1673937523.3357472,1673937516.24144,-8.732483
1673937523.3359172,1673937516.25707,-9.982758
1673937523.4997764,1673937516.27269,-11.41086
1673937523.4999652,1673937516.28832,-12.88469
1673937523.5001423,1673937516.30395,-14.28882
1673937523.500317,1673937516.31957,-15.57069
1673937523.5004907,1673937516.3352,-16.79668
1673937523.5006623,1673937516.35082,-18.08171
1673937523.5008307,1673937516.36645,-19.60475
1673937523.5009978,1673937516.38207,-21.51361
1673937523.5011864,1673937516.3977,-23.88297
1673937523.5013845,1673937516.41333,-26.62981
1673937523.5015552,1673937516.42895,-29.4149
1673937523.6712987,1673937516.44458,-31.57974
1673937523.6723905,1673937516.4602,-32.22766
1673937523.6726608,1673937516.47583,-30.4306
1673937523.67289,1673937516.49145,-25.49693
1673937523.6730783,1673937516.50708,-17.28659
1673937523.67326,1673937516.52271,-6.312042
1673937523.6734324,1673937516.53833,6.363449
1673937523.6736062,1673937516.55396,19.43132
1673937523.6737785,1673937516.56958,31.66832
1673937523.6739502,1673937516.58521,42.20871
1673937523.6741173,1673937516.60083,50.61462
1673937523.8517263,1673937516.61646,56.81584
1673937523.8605776,1673937516.63209,61.02052
1673937523.860965,1673937516.64771,63.57077
1673937523.8610566,1673937516.66334,64.86327
1673937523.8610919,1673937516.67896,65.30406
1673937523.8611238,1673937516.69459,65.22438
1673937523.8611543,1673937516.71021,64.89765
1673937523.8611836,1673937516.72584,64.55157
1673937523.8612134,1673937516.74147,64.39411
1673937523.8612587,1673937516.75709,64.65744
1673937523.8613105,1673937516.77272,65.55672
1673937524.0080824,1673937516.78834,67.19967
1673937524.0084527,1673937516.80397,69.52298
1673937524.0085046,1673937516.81959,72.32465
1673937524.0085378,1673937516.83522,75.33337
1673937524.008569,1673937516.85085,78.34489
1673937524.0085986,1673937516.86647,81.25806
1673937524.008627,1673937516.8821,84.01122
1673937524.0086558,1673937516.89772,86.48891
1673937524.0086832,1673937516.91335,88.41025
1673937524.00871,1673937516.92897,89.4183
1673937524.0087383,1673937516.9446,89.22589
1673937524.2110488,1673937516.96023,87.84246
1673937524.2174664,1673937516.97585,85.58807
1673937524.2177703,1673937516.99148,83.03201
1673937524.2179768,1673937517.0071,80.70667
1673937524.2181637,1673937517.02273,78.86911
1673937524.2183397,1673937517.03835,77.42029
1673937524.2185113,1673937517.05398,75.97818
1673937524.2186801,1673937517.06961,74.12894
1673937524.2188482,1673937517.08523,71.62968
1673937524.2190356,1673937517.10086,68.53107
1673937524.2193046,1673937517.11648,65.06215
1673937524.4141772,1673937517.13211,61.55585
1673937524.4175293,1673937517.14773,58.29128
1673937524.4178336,1673937517.16336,55.45102
1673937524.41804,1673937517.17899,53.16574
1673937524.4182239,1673937517.19461,51.53557
1673937524.4183986,1673937517.21024,50.61679
1673937524.4185681,1673937517.22586,50.3929
1673937524.4187398,1673937517.24149,50.71704
1673937524.418906,1673937517.25711,51.34323
1673937524.4190702,1673937517.27274,51.9859
1673937524.4192765,1673937517.28837,52.41129
1673937524.5482922,1673937517.30399,52.46368
1673937524.5493696,1673937517.31962,52.04758
1673937524.5496325,1673937517.33524,51.08612
1673937524.5498264,1673937517.35087,49.48019
1673937524.5500052,1673937517.36649,47.09485
1673937524.5501752,1673937517.38212,43.74463
1673937524.5503438,1673937517.39775,39.20236
1673937524.5505087,1673937517.41337,33.19415
1673937524.55067,1673937517.429,25.49615
1673937524.5508347,1673937517.44462,15.96201
1673937524.5509999,1673937517.46025,4.595398
1673937524.7070093,1673937517.47587,-8.473267
1673937524.7074723,1673937517.4915,-23.05835
1673937524.7088504,1673937517.50713,-39.07156
1673937524.7091656,1673937517.52275,-56.591
1673937524.7093732,1673937517.53838,-75.87299
1673937524.7095537,1673937517.554,-97.21051
1673937524.7097259,1673937517.56963,-120.777
1673937524.709896,1673937517.58525,-146.4443
1673937524.7100627,1673937517.60088,-173.7317
1673937524.710232,1673937517.61651,-201.8053
1673937524.7103996,1673937517.63213,-229.5267
1673937524.8867993,1673937517.64776,-255.5579
1673937524.8880115,1673937517.66338,-278.4944
1673937524.8883114,1673937517.67901,-297.11
1673937524.8885179,1673937517.69463,-310.5733
1673937524.888702,1673937517.71026,-318.6998
1673937524.888873,1673937517.72589,-321.9211
1673937524.8890386,1673937517.74151,-321.0562
1673937524.8892055,1673937517.75714,-316.8085
1673937524.889368,1673937517.77276,-309.3371
1673937524.8895319,1673937517.78839,-298.0356
1673937524.889693,1673937517.80401,-281.757
1673937525.0884182,1673937517.81964,-259.4055
1673937525.0894487,1673937517.83527,-230.5871
1673937525.0896738,1673937517.85089,-196.0577
1673937525.0898604,1673937517.86652,-157.6078
1673937525.0900366,1673937517.88214,-117.6279
1673937525.0902061,1673937517.89777,-78.3092
1673937525.0904012,1673937517.91339,-41.14136
1673937525.090572,1673937517.92902,-6.762207
1673937525.090738,1673937517.94465,24.79761
1673937525.0909042,1673937517.96027,53.56409
1673937525.091069,1673937517.9759,79.19647
1673937525.2458751,1673937517.99152,100.7968
1673937525.2463458,1673937518.00715,117.0981
1673937525.2465682,1673937518.02277,126.8578
1673937525.2466543,1673937518.0384,129.2833
1673937525.2467294,1673937518.05403,124.3221
1673937525.2468023,1673937518.06965,112.6373
1673937525.2468724,1673937518.08528,95.45062
1673937525.2469418,1673937518.1009,74.22742
1673937525.2470105,1673937518.11653,50.5354
1673937525.2470794,1673937518.13215,25.90356
1673937525.2471523,1673937518.14778,1.855164
1673937525.4027894,1673937518.16341,-20.13574
1673937525.402993,1673937518.17903,-38.7934
1673937525.4031277,1673937518.19466,-53.23492
1673937525.40316,1673937518.21028,-63.21967
1673937525.4032242,1673937518.22591,-69.14453
1673937525.403273,1673937518.24153,-71.95288
1673937525.403303,1673937518.25716,-72.76526
1673937525.4033315,1673937518.27279,-72.55261
1673937525.4033604,1673937518.28841,-71.93188
1673937525.4033887,1673937518.30404,-71.10876
1673937525.4034176,1673937518.31966,-70.06879
1673937525.5643408,1673937518.33529,-68.74951
1673937525.5645242,1673937518.35091,-67.22736
1673937525.5646956,1673937518.36654,-65.67706
1673937525.5648623,1673937518.38217,-64.34491
1673937525.565028,1673937518.39779,-63.41589
1673937525.5651925,1673937518.41342,-62.97852
1673937525.5653596,1673937518.42904,-63.07709
1673937525.565525,1673937518.44467,-63.78271
1673937525.565688,1673937518.4603,-65.17657
1673937525.5658503,1673937518.47592,-67.18317
1673937525.5660117,1673937518.49155,-69.44287
1673937525.741461,1673937518.50717,-71.17609
1673937525.7429008,1673937518.5228,-71.34961
1673937525.7431316,1673937518.53842,-68.98364
1673937525.7433562,1673937518.55405,-63.492
1673937525.743537,1673937518.56968,-54.95258
1673937525.7437055,1673937518.5853,-44.06293
1673937525.743871,1673937518.60093,-31.91431
1673937525.7440333,1673937518.61655,-19.57971
1673937525.7441933,1673937518.63218,-7.895081
1673937525.744354,1673937518.6478,2.648499
1673937525.7445161,1673937518.66343,11.82074
1673937525.8989398,1673937518.67906,19.51147
1673937525.9001467,1673937518.69468,25.66217
1673937525.9004145,1673937518.71031,30.24832
1673937525.9006126,1673937518.72593,33.3522
1673937525.900792,1673937518.74156,35.12177
1673937525.9009633,1673937518.75718,35.78302
1673937525.901132,1673937518.77281,35.59061
1673937525.901297,1673937518.78844,34.78754
1673937525.9014602,1673937518.80406,33.62418
1673937525.9016232,1673937518.81969,32.32968
1673937525.9017868,1673937518.83531,31.14514
1673937526.0792413,1673937518.85094,30.2438
1673937526.0802677,1673937518.86656,29.74716
1673937526.080546,1673937518.88219,29.69781
1673937526.0812802,1673937518.89782,30.07285
1673937526.081506,1673937518.91344,30.80417
1673937526.0816932,1673937518.92907,31.80515
1673937526.0818682,1673937518.94469,32.95972
1673937526.0820382,1673937518.96032,34.09323
1673937526.0822058,1673937518.97594,35.0238
1673937526.082372,1673937518.99157,35.55396
1673937526.0825672,1673937519.0072,35.59119
1673937526.2590814,1673937519.02282,35.14359
1673937526.2602172,1673937519.03845,34.30255
1673937526.260443,1673937519.05407,33.17706
1673937526.260625,1673937519.0697,31.86688
1673937526.2607996,1673937519.08532,30.42108
1673937526.2609699,1673937519.10095,28.83298
1673937526.2611365,1673937519.11658,27.11212
1673937526.2613046,1673937519.1322,25.26266
1673937526.2614708,1673937519.14783,23.31714
1673937526.2616353,1673937519.16345,21.30402
1673937526.2618003,1673937519.17908,19.24887
1673937526.438536,1673937519.1947,17.14481
1673937526.4396887,1673937519.21033,14.99609
1673937526.4399211,1673937519.22596,12.8235
1673937526.440115,1673937519.24158,10.65495
1673937526.4402933,1673937519.25721,8.528839
1673937526.4404619,1673937519.27283,6.422028
1673937526.4406283,1673937519.28846,4.249908
1673937526.4407945,1673937519.30408,1.858093
1673937526.440959,1673937519.31971,-0.916748
1673937526.4411519,1673937519.33534,-4.151459
1673937526.4413204,1673937519.35096,-7.770218
1673937526.618488,1673937519.36659,-11.55371
1673937526.6197147,1673937519.38221,-15.19789
1673937526.6199424,1673937519.39784,-18.46686
1673937526.6201322,1673937519.41346,-21.30095
1673937526.620311,1673937519.42909,-23.8951
1673937526.6204822,1673937519.44472,-26.66078
1673937526.6206472,1673937519.46034,-30.05905
1673937526.6208112,1673937519.47597,-34.39099
1673937526.620977,1673937519.49159,-39.56555
1673937526.621139,1673937519.50722,-45.03897
1673937526.6213036,1673937519.52284,-49.81973
1673937526.776094,1673937519.53847,-52.75639
1673937526.7772157,1673937519.5541,-52.80312
1673937526.77742,1673937519.56972,-49.34923
1673937526.7774968,1673937519.58535,-42.39158
1673937526.7775302,1673937519.60097,-32.55678
1673937526.7775612,1673937519.6166,-20.94096
1673937526.7776284,1673937519.63222,-8.813889
1673937526.7776756,1673937519.64785,2.640427
1673937526.7777247,1673937519.66348,12.55863
1673937526.7777908,1673937519.6791,20.50633
1673937526.7778199,1673937519.69473,26.48577
1673937526.9558716,1673937519.71035,30.80198
1673937526.956669,1673937519.72598,33.85052
1673937526.9567218,1673937519.7416,35.96478
1673937526.9567814,1673937519.75723,37.26809
1673937526.9568274,1673937519.77286,37.72622
1673937526.9568834,1673937519.78848,37.27821
1673937526.9569132,1673937519.80411,36.0129
1673937526.9569418,1673937519.81973,34.23317
1673937526.9569705,1673937519.83536,32.45344
1673937526.957067,1673937519.85098,31.17802
1673937526.9571297,1673937519.86661,30.72063
1673937527.114167,1673937519.88224,31.14007
1673937527.1150293,1673937519.89786,32.20889
1673937527.1154826,1673937519.91349,33.58595
1673937527.1162457,1673937519.92911,34.94989
1673937527.1165075,1673937519.94474,36.11663
1673937527.116703,1673937519.96036,37.01257
1673937527.1168785,1673937519.97599,37.65115
1673937527.1170516,1673937519.99162,38.03293
1673937527.1172175,1673937520.00724,38.09592
1673937527.1173844,1673937520.02287,37.78629
1673937527.1175504,1673937520.03849,37.01169
1673937527.2930014,1673937520.05412,35.73197
1673937527.293338,1673937520.06974,33.959
1673937527.2933893,1673937520.08537,31.7643
1673937527.2934244,1673937520.101,29.24707
1673937527.2934556,1673937520.11662,26.51864
1673937527.2934835,1673937520.13225,23.66555
1673937527.2935383,1673937520.14787,20.7457
1673937527.2936146,1673937520.1635,17.79765
1673937527.2936797,1673937520.17912,14.78709
1673937527.2937067,1673937520.19475,11.68063
1673937527.2937338,1673937520.21038,8.42926
1673937527.4515135,1673937520.226,4.974197
1673937527.4520388,1673937520.24163,1.287781
1673937527.4522126,1673937520.25725,-2.621735
1673937527.452722,1673937520.27288,-6.662338
1673937527.4528947,1673937520.2885,-10.68515
1673937527.4530263,1673937520.30413,-14.50511
1673937527.4531448,1673937520.31976,-18.0298
1673937527.453259,1673937520.33538,-21.28191
1673937527.4533744,1673937520.35101,-24.43529
1673937527.4534843,1673937520.36663,-27.79927
1673937527.4535952,1673937520.38226,-31.65369
1673937527.6769023,1673937520.39788,-36.07426
1673937527.6784463,1673937520.41351,-40.7515
1673937527.678744,1673937520.42914,-44.94682
1673937527.6789482,1673937520.44476,-47.6147
1673937527.6791322,1673937520.46039,-47.7139
1673937527.6793385,1673937520.47601,-44.5269
1673937527.679513,1673937520.49164,-37.95091
1673937527.6796849,1673937520.50726,-28.51778
1673937527.67985,1673937520.52289,-17.24487
1673937527.6800168,1673937520.53852,-5.314087
1673937527.6801841,1673937520.55414,6.213608
1673937527.8118815,1673937520.56977,16.58755
1673937527.8132324,1673937520.58539,25.39685
1673937527.8134918,1673937520.60102,32.479
1673937527.8136902,1673937520.61664,37.83374
1673937527.813867,1673937520.63227,41.53827
1673937527.8140376,1673937520.6479,43.76639
1673937527.8142076,1673937520.66352,44.77481
1673937527.814376,1673937520.67915,44.89612
1673937527.8145416,1673937520.69477,44.47134
1673937527.8147051,1673937520.7104,43.78238
1673937527.8148685,1673937520.72603,43.0058
1673937527.99272,1673937520.74165,42.21902
1673937527.9940727,1673937520.75728,41.46457
1673937527.9943683,1673937520.7729,40.78403
1673937527.9945698,1673937520.78853,40.26553
1673937527.9947517,1673937520.80415,40.00473
1673937527.9949238,1673937520.81978,40.10989
1673937527.9950936,1673937520.83541,40.62436
1673937527.9952927,1673937520.85103,41.55817
1673937527.9954693,1673937520.86666,42.82614
1673937527.995635,1673937520.88228,44.24673
1673937527.9957983,1673937520.89791,45.57422
1673937528.1483288,1673937520.91353,46.50681
1673937528.1494849,1673937520.92916,46.79477
1673937528.1497498,1673937520.94479,46.25665
1673937528.1499724,1673937520.96041,44.87857
1673937528.1501732,1673937520.97604,42.79526
1673937528.150369,1673937520.99166,40.2471
1673937528.150562,1673937521.00729,37.52869
1673937528.1507504,1673937521.02291,34.88367
1673937528.1509385,1673937521.03854,32.46924
1673937528.1511345,1673937521.05417,30.31171
1673937528.151376,1673937521.06979,28.31635
1673937528.3066638,1673937521.08542,26.29794
1673937528.306862,1673937521.10104,24.03348
1673937528.307033,1673937521.11667,21.3389
1673937528.3071718,1673937521.13229,18.15601
1673937528.3072286,1673937521.14792,14.61026
1673937528.3072627,1673937521.16355,10.96747
