1669700140.8278675,1669700133.52766,93.67609
1669700140.871808,1669700133.54329,86.57611
1669700140.872135,1669700133.55891,76.89313
1669700140.872348,1669700133.57454,65.53918
1669700140.873149,1669700133.59016,54.32443
1669700140.8733385,1669700133.60579,45.38533
1669700140.873515,1669700133.62142,40.39166
1669700140.8736894,1669700133.63704,39.88741
1669700140.8738616,1669700133.65267,43.04564
1669700140.874037,1669700133.66829,47.94461
1669700140.8742049,1669700133.68392,52.23262
1669700141.007057,1669700133.69954,53.85121
1669700141.0076199,1669700133.71517,51.46539
1669700141.008076,1669700133.7308,44.59502
1669700141.0082204,1669700133.74642,33.41355
1669700141.0083315,1669700133.76205,18.57854
1669700141.0084324,1669700133.77767,1.102325
1669700141.0085294,1669700133.7933,-17.73151
1669700141.0086243,1669700133.80892,-36.4663
1669700141.0087178,1669700133.82455,-53.77007
1669700141.0088098,1669700133.84018,-68.84505
1669700141.008901,1669700133.8558,-81.74632
1669700141.2104077,1669700133.87143,-93.42838
1669700141.2110403,1669700133.88705,-105.3957
1669700141.2113152,1669700133.90268,-119.0525
1669700141.2115197,1669700133.9183,-134.9541
1669700141.2117045,1669700133.93393,-152.2924
1669700141.2118795,1669700133.94956,-168.7618
1669700141.212053,1669700133.96518,-181.0318
1669700141.2122245,1669700133.98081,-185.6134
1669700141.2123933,1669700133.99643,-179.9384
1669700141.212562,1669700134.01206,-163.2069
1669700141.212733,1669700134.02768,-136.7151
1669700141.3452575,1669700134.04331,-103.5033
1669700141.346428,1669700134.05894,-67.44174
1669700141.346671,1669700134.07456,-32.15462
1669700141.3468735,1669700134.09019,-0.1955261
1669700141.3470585,1669700134.10581,27.21208
1669700141.3472338,1669700134.12144,49.93134
1669700141.3474085,1669700134.13706,68.40631
1669700141.34758,1669700134.15269,83.19785
1669700141.3477507,1669700134.16832,94.7164
1669700141.3479216,1669700134.18394,103.2796
1669700141.3480902,1669700134.19957,109.2141
1669700141.525907,1669700134.21519,112.9672
1669700141.5263524,1669700134.23082,115.1127
1669700141.5270147,1669700134.24644,116.1958
1669700141.5272174,1669700134.26207,116.6827
1669700141.5277514,1669700134.2777,116.8172
1669700141.5279515,1669700134.29332,116.7319
1669700141.5281022,1669700134.30895,116.5403
1669700141.5282402,1669700134.32457,116.4486
1669700141.5284016,1669700134.3402,116.7845
1669700141.5285487,1669700134.35582,117.8653
1669700141.5286777,1669700134.37145,119.8614
1669700141.6860998,1669700134.38708,122.6097
1669700141.6862893,1669700134.4027,125.5798
1669700141.6865199,1669700134.41833,127.9801
1669700141.686697,1669700134.43395,129.024
1669700141.6868682,1669700134.44958,128.1791
1669700141.6870377,1669700134.4652,125.4016
1669700141.6872058,1669700134.48083,121.1077
1669700141.6873748,1669700134.49646,115.9656
1669700141.6875453,1669700134.51208,110.6384
1669700141.6877167,1669700134.52771,105.4994
1669700141.6878858,1669700134.54333,100.5588
1669700141.8628871,1669700134.55896,95.51587
1669700141.8640478,1669700134.57458,89.98956
1669700141.864323,1669700134.59021,83.7168
1669700141.8645325,1669700134.60584,76.73682
1669700141.8647225,1669700134.62146,69.37592
1669700141.8649044,1669700134.63709,62.12701
1669700141.8650818,1669700134.65271,55.43463
1669700141.8652556,1669700134.66834,49.47473
1669700141.8654246,1669700134.68396,44.10864
1669700141.8655934,1669700134.69959,38.91095
1669700141.865764,1669700134.71522,33.40045
1669700142.0423348,1669700134.73084,27.25586
1669700142.0426278,1669700134.74647,20.45599
1669700142.0426824,1669700134.76209,13.31366
1669700142.0427191,1669700134.77772,6.309326
1669700142.0435102,1669700134.79334,-0.09259033
1669700142.0435798,1669700134.80897,-5.695618
1669700142.043617,1669700134.8246,-10.61597
1669700142.0436502,1669700134.84022,-15.29694
1669700142.043681,1669700134.85585,-20.41205
1669700142.0437107,1669700134.87147,-26.69055
1669700142.0437407,1669700134.8871,-34.65808
1669700142.2039838,1669700134.90272,-44.2973
1669700142.2041733,1669700134.91835,-54.80396
1669700142.204349,1669700134.93398,-64.45453
1669700142.2054331,1669700134.9496,-70.96143
1669700142.2057035,1669700134.96523,-72.0174
1669700142.205908,1669700134.98085,-66.0882
1669700142.2060935,1669700134.99648,-52.96204
1669700142.2062764,1669700135.0121,-33.8667
1669700142.206492,1669700135.02773,-11.07043
1669700142.2066693,1669700135.04336,12.83051
1669700142.2068393,1669700135.05898,35.57007
1669700142.3806157,1669700135.07461,55.64044
1669700142.3818958,1669700135.09023,72.28931
1669700142.3828228,1669700135.10586,85.34119
1669700142.3831003,1669700135.12148,94.90918
1669700142.383303,1669700135.13711,101.3057
1669700142.383487,1669700135.15274,105.0093
1669700142.3836672,1669700135.16836,106.6437
1669700142.3838415,1669700135.18399,106.9745
1669700142.384013,1669700135.19961,106.7195
1669700142.3841825,1669700135.21524,106.4638
1669700142.384351,1669700135.23086,106.5263
1669700142.5836957,1669700135.24649,107.0352
1669700142.585057,1669700135.26212,108.0084
1669700142.5856452,1669700135.27774,109.5059
1669700142.5858562,1669700135.29337,111.7593
1669700142.5860443,1669700135.30899,115.0897
1669700142.586224,1669700135.32462,119.9026
1669700142.586432,1669700135.34025,126.4749
1669700142.5866115,1669700135.35587,134.8352
1669700142.586779,1669700135.3715,144.5781
1669700142.5869455,1669700135.38712,154.7969
1669700142.587111,1669700135.40275,164.1606
1669700142.7171552,1669700135.41837,171.0681
1669700142.717574,1669700135.434,174.0398
1669700142.7176163,1669700135.44963,172.1086
1669700142.7176502,1669700135.46525,165.233
1669700142.7176828,1669700135.48088,154.382
1669700142.7177138,1669700135.4965,141.3487
1669700142.717745,1669700135.51213,128.1926
1669700142.717775,1669700135.52775,116.6423
1669700142.7178044,1669700135.54338,107.6014
1669700142.717834,1669700135.55901,100.9771
1669700142.717863,1669700135.57463,95.85889
1669700142.897241,1669700135.59026,90.82251
1669700142.8984344,1669700135.60588,84.40741
1669700142.8987148,1669700135.62151,75.45221
1669700142.8989232,1669700135.63713,63.33698
1669700142.8991098,1669700135.65276,48.09979
1669700142.8992894,1669700135.66839,30.47852
1669700142.8994627,1669700135.68401,11.8316
1669700142.899634,1669700135.69964,-6.061218
1669700142.899809,1669700135.71526,-21.34698
1669700142.8999808,1669700135.73089,-32.64844
1669700142.9001505,1669700135.74651,-39.52612
1669700143.077495,1669700135.76214,-42.77039
1669700143.0787082,1669700135.77777,-44.30804
1669700143.0789824,1669700135.79339,-46.66974
1669700143.079191,1669700135.80902,-52.25211
1669700143.0793865,1669700135.82464,-62.56277
1669700143.0795674,1669700135.84027,-77.72076
1669700143.0797412,1669700135.85589,-96.27011
1669700143.0799136,1669700135.87152,-115.4094
1669700143.0800886,1669700135.88715,-131.5377
1669700143.0802588,1669700135.90277,-141.041
1669700143.080428,1669700135.9184,-141.2142
1669700143.257262,1669700135.93402,-131.0361
1669700143.258419,1669700135.94965,-111.6222
1669700143.2586663,1669700135.96527,-86.04706
1669700143.2588665,1669700135.9809,-58.53897
1669700143.2590506,1669700135.99653,-33.27969
1669700143.2592282,1669700136.01215,-13.28329
1669700143.259404,1669700136.02778,0.1908875
1669700143.259584,1669700136.0434,7.501251
1669700143.2597568,1669700136.05903,9.869507
1669700143.259928,1669700136.07465,8.618317
1669700143.2600977,1669700136.09028,4.722504
1669700143.4145446,1669700136.10591,-1.118774
1669700143.4149234,1669700136.12153,-8.053741
1669700143.414981,1669700136.13716,-14.84619
1669700143.4150178,1669700136.15278,-19.96375
1669700143.4150503,1669700136.16841,-22.07211
1669700143.4150808,1669700136.18403,-20.57964
1669700143.4151103,1669700136.19966,-15.98343
1669700143.41514,1669700136.21529,-9.578598
1669700143.4151692,1669700136.23091,-2.911789
1669700143.4151986,1669700136.24654,2.874207
1669700143.4152272,1669700136.26216,7.467987
1669700143.594828,1669700136.27779,11.29384
1669700143.5960374,1669700136.29341,15.04375
1669700143.5963109,1669700136.30904,19.08495
1669700143.5965166,1669700136.32467,23.16458
1669700143.5967069,1669700136.34029,26.40166
1669700143.5968862,1669700136.35592,27.71354
1669700143.5970628,1669700136.37154,26.26881
1669700143.5972633,1669700136.38717,21.91679
1669700143.5974376,1669700136.40279,15.24098
1669700143.5976071,1669700136.41842,7.372063
1669700143.597777,1669700136.43405,-0.4110489
1669700143.7522726,1669700136.44967,-7.116364
1669700143.7530987,1669700136.4653,-12.29401
1669700143.7532759,1669700136.48092,-16.16061
1669700143.7534206,1669700136.49655,-19.37246
1669700143.7535596,1669700136.51217,-22.81875
1669700143.753692,1669700136.5278,-27.25131
1669700143.753821,1669700136.54343,-33.09081
1669700143.7539496,1669700136.55905,-40.39528
1669700143.7540786,1669700136.57468,-48.97307
1669700143.7542055,1669700136.5903,-58.6667
1669700143.754354,1669700136.60593,-69.49859
1669700143.932291,1669700136.62155,-81.75179
1669700143.9334466,1669700136.63718,-95.77024
1669700143.9337244,1669700136.65281,-111.7179
1669700143.9339325,1669700136.66843,-129.2588
1669700143.9341109,1669700136.68406,-147.4176
1669700143.9342859,1669700136.69968,-164.7686
1669700143.9345095,1669700136.71531,-179.7371
1669700143.934683,1669700136.73093,-191.1108
1669700143.9348514,1669700136.74656,-198.3617
1669700143.9350166,1669700136.76219,-201.8082
1669700143.9351823,1669700136.77781,-202.3869
1669700144.0897183,1669700136.79344,-201.3408
1669700144.0909915,1669700136.80906,-199.8021
1669700144.0912824,1669700136.82469,-198.4579
1669700144.09149,1669700136.84031,-197.3465
1669700144.091681,1669700136.85594,-195.7561
1669700144.0918608,1669700136.87157,-192.3366
1669700144.0920382,1669700136.88719,-185.3394
1669700144.0922112,1669700136.90282,-173.1953
1669700144.092383,1669700136.91844,-155.0504
1669700144.0925546,1669700136.93407,-131.2581
1669700144.0927277,1669700136.94969,-103.453
1669700144.269849,1669700136.96532,-74.18011
1669700144.2709758,1669700136.98095,-46.18239
1669700144.2712061,1669700136.99657,-21.65174
1669700144.2713966,1669700137.0122,-1.749931
1669700144.271661,1669700137.02782,13.43442
1669700144.2718878,1669700137.04345,24.54033
1669700144.2720609,1669700137.05907,32.48563
1669700144.2722287,1669700137.0747,38.11108
1669700144.2723947,1669700137.09033,41.99089
1669700144.2725592,1669700137.10595,44.52501
1669700144.2727222,1669700137.12158,45.95387
1669700144.4508703,1669700137.1372,46.48982
1669700144.45209,1669700137.15283,46.32705
1669700144.4607859,1669700137.16845,45.70244
1669700144.4610047,1669700137.18408,44.91907
1669700144.4611914,1669700137.19971,44.33688
1669700144.4613702,1669700137.21533,44.35691
1669700144.4615457,1669700137.23096,45.35434
1669700144.4617174,1669700137.24658,47.6367
1669700144.4618928,1669700137.26221,51.36017
1669700144.4620655,1669700137.27783,56.49976
1669700144.4622347,1669700137.29346,62.82121
1669700144.6071851,1669700137.30909,69.84305
1669700144.6078396,1669700137.32471,76.89012
1669700144.6079783,1669700137.34034,83.19523
1669700144.6080854,1669700137.35596,88.06467
1669700144.608181,1669700137.37159,91.05183
1669700144.608272,1669700137.38721,92.13099
1669700144.60836,1669700137.40284,91.56979
1669700144.608447,1669700137.41847,89.9178
1669700144.608532,1669700137.43409,87.73333
1669700144.6086173,1669700137.44972,85.44899
1669700144.6087039,1669700137.46534,83.23985
1669700144.7874036,1669700137.48097,80.97913
1669700144.7885776,1669700137.49659,78.25319
1669700144.7888093,1669700137.51222,74.51242
1669700144.7890005,1669700137.52785,69.27374
1669700144.7891781,1669700137.54347,62.30273
1669700144.7893505,1669700137.5591,53.73492
1669700144.7895205,1669700137.57472,43.98775
1669700144.7896838,1669700137.59035,33.60307
1669700144.7898474,1669700137.60597,23.03111
1669700144.7900088,1669700137.6216,12.52629
1669700144.7901702,1669700137.63723,2.176208
1669700144.9672976,1669700137.65285,-7.941315
1669700144.9684777,1669700137.66848,-17.6517
1669700144.9687424,1669700137.6841,-26.66219
1669700144.9689405,1669700137.69973,-34.68478
1669700144.9691205,1669700137.71535,-41.53612
1669700144.9692905,1669700137.73098,-47.28467
1669700144.969457,1669700137.74661,-52.23141
1669700144.9696212,1669700137.76223,-56.91039
1669700144.9697843,1669700137.77786,-62.01247
1669700144.969951,1669700137.79348,-68.26064
1669700144.9701388,1669700137.80911,-76.11517
1669700145.169812,1669700137.82473,-85.44478
1669700145.1710374,1669700137.84036,-95.18748
1669700145.1713085,1669700137.85599,-103.4073
1669700145.1715019,1669700137.87161,-107.7647
1669700145.1716866,1669700137.88724,-106.2657
1669700145.1718597,1669700137.90286,-98.04248
1669700145.1720295,1669700137.91849,-83.71039
1669700145.172195,1669700137.93412,-65.15614
1669700145.172359,1669700137.94974,-44.87489
1669700145.1725216,1669700137.96537,-25.19168
1669700145.172684,1669700137.98099,-7.707169
1669700145.3506086,1669700137.99662,6.812363
1669700145.3509328,1669700138.01224,18.19121
1669700145.35114,1669700138.02787,26.53224
1669700145.3513222,1669700138.0435,31.96878
1669700145.3514953,1669700138.05912,34.6947
1669700145.3516612,1669700138.07475,35.05017
1669700145.351825,1669700138.09037,33.59814
1669700145.3519917,1669700138.106,31.12566
1669700145.352155,1669700138.12162,28.45111
1669700145.35232,1669700138.13725,26.24591
1669700145.3524816,1669700138.15288,24.88675
1669700145.5081081,1669700138.1685,24.44414
1669700145.5084198,1669700138.18413,24.74467
1669700145.5086255,1669700138.19975,25.53827
1669700145.5088084,1669700138.21538,26.65326
1669700145.508985,1669700138.231,28.02603
1669700145.509154,1669700138.24663,29.71738
1669700145.5093205,1669700138.26226,31.78085
1669700145.5094838,1669700138.27788,34.16235
1669700145.5096462,1669700138.29351,36.58905
1669700145.5098062,1669700138.30913,38.62579
1669700145.5099654,1669700138.32476,39.75085
1669700145.6423965,1669700138.34038,39.53375
1669700145.6436164,1669700138.35601,37.82846
1669700145.6439347,1669700138.37164,34.82986
1669700145.6441982,1669700138.38726,31.03476
1669700145.644402,1669700138.40289,27.02209
1669700145.6445866,1669700138.41851,23.24338
1669700145.6447659,1669700138.43414,19.75528
1669700145.644946,1669700138.44976,16.24368
1669700145.6451209,1669700138.46539,12.19839
1669700145.6452923,1669700138.48102,7.18512
1669700145.645465,1669700138.49664,1.156067
1669700145.8223805,1669700138.51227,-5.533905
1669700145.8235648,1669700138.52789,-12.23389
1669700145.8238606,1669700138.54352,-18.3699
1669700145.824068,1669700138.55914,-23.6456
1669700145.8242555,1669700138.57477,-28.19492
1669700145.8244343,1669700138.5904,-32.4259
1669700145.8246098,1669700138.60602,-36.85449
1669700145.8247824,1669700138.62165,-41.97784
1669700145.824955,1669700138.63727,-48.17191
1669700145.8251262,1669700138.6529,-55.7269
1669700145.825298,1669700138.66852,-64.67651
1669700146.0060866,1669700138.68415,-74.61853
1669700146.0062776,1669700138.69978,-84.44543
1669700146.006521,1669700138.7154,-92.37878
1669700146.0067008,1669700138.73103,-96.2645
1669700146.0069044,1669700138.74665,-94.30011
1669700146.0070794,1669700138.76228,-85.68777
1669700146.00725,1669700138.7779,-71.01944
1669700146.0074193,1669700138.79353,-52.15906
1669700146.0075893,1669700138.80916,-31.59451
1669700146.0077612,1669700138.82478,-11.72018
1669700146.0079584,1669700138.84041,5.804321
1669700146.1600196,1669700138.85603,20.22092
1669700146.1614904,1669700138.87166,31.54742
1669700146.161728,1669700138.88728,40.15662
1669700146.1619265,1669700138.90291,46.49356
1669700146.1621106,1669700138.91854,50.90768
1669700146.1623688,1669700138.93416,53.65784
1669700146.1626108,1669700138.94979,55.02829
1669700146.1627932,1669700138.96541,55.35352
1669700146.1629667,1669700138.98104,55.04025
1669700146.1631362,1669700138.99666,54.42694
1669700146.1633024,1669700139.01229,53.74146
1669700146.33981,1669700139.02792,53.11917
1669700146.3409436,1669700139.04354,52.61908
1669700146.341185,1669700139.05917,52.37976
1669700146.3413813,1669700139.07479,52.55167
1669700146.3415668,1669700139.09042,53.28799
1669700146.3417416,1669700139.10604,54.59967
1669700146.3419147,1669700139.12167,56.33365
1669700146.3420866,1669700139.1373,58.16833
1669700146.342262,1669700139.15292,59.73688
1669700146.3424802,1669700139.16855,60.73962
1669700146.3426535,1669700139.18417,60.97183
1669700146.4983869,1669700139.1998,60.38757
1669700146.49899,1669700139.21542,58.97781
1669700146.4992988,1669700139.23105,56.77658
1669700146.499513,1669700139.24668,53.80042
1669700146.4997003,1669700139.2623,50.09061
1669700146.4998796,1669700139.27793,45.72855
1669700146.500055,1669700139.29355,40.84528
1669700146.5002291,1669700139.30918,35.61389
1669700146.500402,1669700139.3248,30.19675
1669700146.5005732,1669700139.34043,24.7403
1669700146.500745,1669700139.35606,19.32462
1669700146.6774206,1669700139.37168,13.95007
1669700146.678608,1669700139.38731,8.503723
1669700146.6788898,1669700139.40293,2.811096
1669700146.6790962,1669700139.41856,-3.285309
1669700146.6792834,1669700139.43418,-9.845428
1669700146.6794627,1669700139.44981,-16.76382
1669700146.6796372,1669700139.46544,-23.84149
1669700146.6798108,1669700139.48106,-30.80035
1669700146.6799803,1669700139.49669,-37.40665
1669700146.680151,1669700139.51231,-43.51596
1669700146.6803212,1669700139.52794,-49.10849
1669700146.88056,1669700139.54356,-54.4104
1669700146.881702,1669700139.55919,-59.94003
1669700146.882168,1669700139.57482,-66.50708
1669700146.8828924,1669700139.59044,-74.88766
1669700146.883129,1669700139.60607,-85.40744
1669700146.8833237,1669700139.62169,-97.35266
1669700146.8835087,1669700139.63732,-108.8161
1669700146.883688,1669700139.65294,-117.0388
1669700146.8838623,1669700139.66857,-119.2281
1669700146.8840337,1669700139.6842,-113.5939
1669700146.8842058,1669700139.69982,-100.0407
1669700147.0152383,1669700139.71545,-80.21439
1669700147.0162811,1669700139.73107,-56.88199
1669700147.0164576,1669700139.7467,-33.00076
1669700147.0166042,1669700139.76232,-10.8551
1669700147.016741,1669700139.77795,8.334106
1669700147.0168724,1669700139.79358,24.3476
1669700147.0170023,1669700139.8092,37.59595
1669700147.017132,1669700139.82483,48.71527
1669700147.0172594,1669700139.84045,58.27234
1669700147.0173867,1669700139.85608,66.62427
1669700147.0175114,1669700139.8717,73.8963
1669700147.2174098,1669700139.88733,79.99292
1669700147.2184508,1669700139.90296,84.73816
1669700147.2187595,1669700139.91858,88.07147
1669700147.2192664,1669700139.93421,90.2309
1669700147.2195375,1669700139.94983,91.83856
1669700147.2197423,1669700139.96546,93.74738
1669700147.2199278,1669700139.98108,96.74475
1669700147.2201045,1669700139.99671,101.2628
1669700147.2202783,1669700140.01234,107.1984
1669700147.2204518,1669700140.02796,114.0349
1669700147.220624,1669700140.04359,121.1438
1669700147.4198797,1669700140.05921,128.0938
1669700147.4210346,1669700140.07484,134.7668
1669700147.4212751,1669700140.09046,141.3357
1669700147.4214718,1669700140.10609,148.0234
1669700147.4216557,1669700140.12172,155.0172
1669700147.4218318,1669700140.13734,162.4911
1669700147.4220057,1669700140.15297,170.7231
1669700147.4221807,1669700140.16859,179.9868
1669700147.4223814,1669700140.18422,190.3398
1669700147.4225645,1669700140.19985,201.2381
1669700147.4227347,1669700140.21547,211.4584
1669700147.5328643,1669700140.2311,219.4198
1669700147.534194,1669700140.24672,223.8069
1669700147.534556,1669700140.26235,224.2516
1669700147.5347822,1669700140.27797,221.477
1669700147.5349758,1669700140.2936,216.9239
1669700147.535162,1669700140.30923,211.9814
1669700147.5353382,1669700140.32485,207.3221
1669700147.5355144,1669700140.34048,202.8156
1669700147.5356874,1669700140.3561,197.9648
1669700147.535858,1669700140.37173,192.6478
1669700147.536027,1669700140.38735,187.541
1669700147.713982,1669700140.40298,184.0265
1669700147.7142997,1669700140.41861,183.5345
1669700147.714555,1669700140.43423,186.724
1669700147.7147515,1669700140.44986,192.9708
1669700147.7149727,1669700140.46548,200.4324
1669700147.7152224,1669700140.48111,206.6528
1669700147.7154222,1669700140.49673,209.4168
1669700147.7155976,1669700140.51236,207.4928
1669700147.715774,1669700140.52799,200.9552
1669700147.7160091,1669700140.54361,190.9285
1669700147.7162151,1669700140.55924,178.991
1669700147.86994,1669700140.57486,166.4462
1669700147.8711576,1669700140.59049,153.8805
1669700147.8713999,1669700140.60611,141.1996
1669700147.871598,1669700140.62174,128.0322
1669700147.8717778,1669700140.63737,114.2719
1669700147.8719828,1669700140.65299,100.3525
1669700147.872161,1669700140.66862,87.1349
1669700147.8723342,1669700140.68424,75.35529
1669700147.8725064,1669700140.69987,65.11218
1669700147.8726752,1669700140.71549,55.63501
1669700147.872842,1669700140.73112,45.47879
1669700148.1395907,1669700140.74675,33.13318
1669700148.1398356,1669700140.76237,17.73694
1669700148.1399496,1669700140.778,-0.57901
1669700148.1399908,1669700140.79362,-20.79391
1669700148.1400247,1669700140.80925,-41.42966
1669700148.1400564,1669700140.82487,-61.23218
1669700148.1400874,1669700140.8405,-79.66034
1669700148.1401176,1669700140.85613,-97.03864
1669700148.140148,1669700140.87175,-114.3713
1669700148.1401775,1669700140.88738,-133.0562
1669700148.1402068,1669700140.903,-154.5945
1669700148.2311559,1669700140.91863,-180.1393
1669700148.2319155,1669700140.93425,-209.9771
1669700148.2328255,1669700140.94988,-242.8461
1669700148.233587,1669700140.96551,-275.5216
1669700148.2338727,1669700140.98113,-303.0575
1669700148.234076,1669700140.99676,-319.9086
1669700148.2342587,1669700141.01238,-321.6729
1669700148.2344747,1669700141.02801,-306.6895
1669700148.23465,1669700141.04363,-276.7092
1669700148.2348201,1669700141.05926,-236.2144
1669700148.2350037,1669700141.07489,-190.747
1669700148.4115963,1669700141.09051,-145.0089
1669700148.4126642,1669700141.10614,-101.817
1669700148.4129303,1669700141.12176,-62.12183
1669700148.4131293,1669700141.13739,-25.93274
1669700148.4133086,1669700141.15301,6.746582
1669700148.4134805,1669700141.16864,35.44714
1669700148.413645,1669700141.18427,59.50867
1669700148.4138083,1669700141.19989,78.60608
1669700148.4139745,1669700141.21552,93.08179
1669700148.4141397,1669700141.23114,103.7944
1669700148.4143028,1669700141.24677,111.6628
1669700148.5686646,1669700141.26239,117.3539
1669700148.569046,1669700141.27802,121.3164
1669700148.5694864,1669700141.29365,123.9816
1669700148.569964,1669700141.30927,125.9913
1669700148.5705671,1669700141.3249,128.1263
1669700148.5708337,1669700141.34052,130.8639
1669700148.571033,1669700141.35615,133.9486
1669700148.5712147,1669700141.37177,136.3037
1669700148.5713897,1669700141.3874,136.3564
1669700148.5715609,1669700141.40303,132.6665
1669700148.5717268,1669700141.41865,124.4736
1669700148.7486124,1669700141.43428,111.8278
1669700148.749842,1669700141.4499,95.37891
1669700148.7507594,1669700141.46553,76.01184
1669700148.7510412,1669700141.48115,54.55127
1669700148.7512496,1669700141.49678,31.78394
1669700148.7514265,1669700141.51241,8.625
1669700148.751604,1669700141.52803,-13.85791
1669700148.751773,1669700141.54366,-34.55371
1669700148.7519386,1669700141.55928,-52.71118
1669700148.7521024,1669700141.57491,-68.26624
1669700148.7522657,1669700141.59053,-81.90857
1669700148.9053514,1669700141.60616,-94.90637
1669700148.906151,1669700141.62179,-108.6804
1669700148.906373,1669700141.63741,-124.4546
1669700148.9065273,1669700141.65304,-142.8457
1669700148.9066606,1669700141.66866,-163.7375
1669700148.9067893,1669700141.68429,-186.1069
1669700148.9069142,1669700141.69991,-208.1831
1669700148.9070385,1669700141.71554,-227.7856
1669700148.9071608,1669700141.73117,-242.8191
1669700148.907282,1669700141.74679,-251.9197
1669700148.9074054,1669700141.76242,-254.9065
1669700149.157574,1669700141.77804,-252.894
1669700149.157746,1669700141.79367,-247.906
1669700149.1579149,1669700141.80929,-242.2554
1669700149.1580794,1669700141.82492,-237.8193
1669700149.1582427,1669700141.84055,-235.623
1669700149.1584487,1669700141.85617,-235.793
1669700149.1586206,1669700141.8718,-237.8398
1669700149.158784,1669700141.88742,-241.071
1669700149.1589475,1669700141.90305,-244.9126
1669700149.1591113,1669700141.91867,-248.9939
1669700149.159273,1669700141.9343,-253.0781
1669700149.2649355,1669700141.94993,-256.9202
1669700149.2739847,1669700141.96555,-260.1509
1669700149.2744162,1669700141.98118,-262.3579
1669700149.2746398,1669700141.9968,-263.2485
1669700149.2748284,1669700142.01243,-262.8242
1669700149.2750108,1669700142.02805,-261.5369
1669700149.2751842,1669700142.04368,-260.1675
1669700149.2753546,1669700142.05931,-259.6523
1669700149.2755482,1669700142.07493,-260.7415
1669700149.275719,1669700142.09056,-263.8416
1669700149.275882,1669700142.10618,-268.9531
1669700149.4675412,1669700142.12181,-275.8423
1669700149.4686527,1669700142.13743,-284.2458
1669700149.476582,1669700142.15306,-293.9277
1669700149.4768,1669700142.16869,-304.6711
1669700149.4769855,1669700142.18431,-315.9714
1669700149.4771593,1669700142.19994,-326.8228
1669700149.4773302,1669700142.21556,-335.5549
1669700149.4774978,1669700142.23119,-339.9421
1669700149.4776661,1669700142.24681,-337.6455
1669700149.47783,1669700142.26244,-326.7588
1669700149.4779916,1669700142.27807,-306.48
1669700149.670052,1669700142.29369,-277.4453
1669700149.6713748,1669700142.30932,-241.7031
1669700149.6718137,1669700142.32494,-202.2993
1669700149.6720855,1669700142.34057,-162.4824
1669700149.6722848,1669700142.35619,-124.9856
1669700149.6724668,1669700142.37182,-91.55957
1669700149.6726449,1669700142.38745,-62.84302
1669700149.6728184,1669700142.40307,-38.59595
1669700149.6729882,1669700142.4187,-18.13745
1669700149.673157,1669700142.43432,-0.6867676
1669700149.673323,1669700142.44995,14.34033
1669700149.759952,1669700142.46557,27.23096
1669700149.7611241,1669700142.4812,38.03467
1669700149.7613893,1669700142.49683,46.53809
1669700149.761589,1669700142.51245,52.38379
1669700149.761776,1669700142.52808,55.15845
1669700149.7619503,1669700142.5437,54.58044
1669700149.762122,1669700142.55933,50.66528
1669700149.7622886,1669700142.57495,44.01599
1669700149.762484,1669700142.59058,35.94971
1669700149.762648,1669700142.60621,28.49341
1669700149.7628126,1669700142.62183,24.09509
1669700149.9625385,1669700142.63746,25.03894
1669700149.963707,1669700142.65308,32.79785
1669700149.963975,1669700142.66871,47.43384
1669700149.964174,1669700142.68433,67.52112
1669700149.9643583,1669700142.69996,90.43457
1669700149.9645352,1669700142.71559,113.1639
1669700149.9647088,1669700142.73121,133.083
1669700149.9648783,1669700142.74684,148.4963
1669700149.965046,1669700142.76246,158.7738
1669700149.965212,1669700142.77809,164.0254
1669700149.965379,1669700142.79372,164.801
1669700150.1233273,1669700142.80934,161.7704
1669700150.1235125,1669700142.82497,155.7109
1669700150.1236866,1669700142.84059,147.532
1669700150.1238549,1669700142.85622,138.276
1669700150.1240246,1669700142.87184,128.9806
1669700150.1241908,1669700142.88747,120.39
1669700150.1243567,1669700142.9031,112.8337
1669700150.1245215,1669700142.91872,106.173
1669700150.1246855,1669700142.93435,100.0331
1669700150.1248486,1669700142.94997,94.0011
1669700150.1250117,1669700142.9656,87.87659
1669700150.279492,1669700142.98122,81.72424
1669700150.2795868,1669700142.99685,75.78589
1669700150.2796795,1669700143.01248,70.35059
1669700150.2797718,1669700143.0281,65.53027
1669700150.2798626,1669700143.04373,61.22107
1669700150.2799509,1669700143.05935,57.04163
1669700150.2800393,1669700143.07498,52.55029
1669700150.2801292,1669700143.0906,47.34875
1669700150.2802186,1669700143.10623,41.34033
1669700150.2803073,1669700143.12186,34.72388
1669700150.2803962,1669700143.13748,27.91345
1669700150.4575841,1669700143.15311,21.30725
1669700150.458656,1669700143.16873,15.14258
1669700150.458872,1669700143.18436,9.49646
1669700150.459051,1669700143.19998,4.354126
1669700150.4592185,1669700143.21561,-0.1602783
1669700150.4593828,1669700143.23124,-3.863159
1669700150.4595394,1669700143.24686,-6.603027
1669700150.459695,1669700143.26249,-8.437256
1669700150.4598508,1669700143.27811,-9.771118
1669700150.4600046,1669700143.29374,-11.16052
1669700150.460159,1669700143.30936,-13.12256
1669700150.6381989,1669700143.32499,-15.8092
1669700150.639401,1669700143.34062,-19.02478
1669700150.6402986,1669700143.35624,-22.29736
1669700150.6405487,1669700143.37187,-25.16357
1669700150.6407444,1669700143.38749,-27.35046
1669700150.6409214,1669700143.40312,-28.81067
1669700150.6410825,1669700143.41874,-29.79407
1669700150.6412501,1669700143.43437,-30.7854
1669700150.641421,1669700143.45,-32.59851
1669700150.6415854,1669700143.46562,-36.15991
1669700150.6417499,1669700143.48125,-42.34045
1669700150.8189352,1669700143.49687,-51.39868
1669700150.8202739,1669700143.5125,-62.67114
1669700150.8206167,1669700143.52812,-74.48743
1669700150.82081,1669700143.54375,-84.52588
1669700150.8209841,1669700143.55938,-90.53723
1669700150.8211527,1669700143.575,-90.9693
1669700150.8213189,1669700143.59063,-85.52869
1669700150.8214827,1669700143.60625,-75.03607
1669700150.8216484,1669700143.62188,-61.14435
1669700150.8218124,1669700143.6375,-45.71576
1669700150.8219748,1669700143.65313,-30.36273
1669700150.998213,1669700143.66876,-16.2326
1669700151.0000427,1669700143.68438,-3.983643
1669700151.0003188,1669700143.70001,6.046509
1669700151.000513,1669700143.71563,13.75958
1669700151.000692,1669700143.73126,19.16803
1669700151.0008676,1669700143.74688,22.51715
1669700151.0010345,1669700143.76251,24.26178
1669700151.0011973,1669700143.77814,25.0907
1669700151.00136,1669700143.79376,25.77509
1669700151.0015202,1669700143.80939,26.95984
1669700151.001679,1669700143.82501,29.03387
1669700151.1773636,1669700143.84064,32.03394
1669700151.1781814,1669700143.85626,35.73816
1669700151.1783752,1669700143.87189,39.84711
1669700151.1785228,1669700143.88752,44.15784
1669700151.1786542,1669700143.90314,48.67627
1669700151.1787791,1669700143.91877,53.55963
1669700151.1789014,1669700143.93439,59.05634
1669700151.1790242,1669700143.95002,65.30719
1669700151.179146,1669700143.96564,72.2594
1669700151.1792665,1669700143.98127,79.55096
1669700151.1793888,1669700143.9969,86.60779
1669700151.3123088,1669700144.01252,92.69678
1669700151.313072,1669700144.02815,97.11853
1669700151.3134243,1669700144.04377,99.37018
1669700151.3135767,1669700144.0594,99.28784
1669700151.313706,1669700144.07502,97.1319
1669700151.3138309,1669700144.09065,93.4704
1669700151.313954,1669700144.10628,89.08618
1669700151.3140728,1669700144.1219,84.67725
1669700151.314194,1669700144.13753,80.69672
1669700151.3143315,1669700144.15315,77.23883
1669700151.3144617,1669700144.16878,74.13275
1669700151.493183,1669700144.1844,71.0488
1669700151.4942703,1669700144.20003,67.66293
1669700151.4945345,1669700144.21566,63.70267
1669700151.494721,1669700144.23128,58.85132
1669700151.4948962,1669700144.24691,52.64233
1669700151.4950643,1669700144.26253,44.41724
1669700151.495224,1669700144.27816,33.44147
1669700151.495387,1669700144.29378,19.20947
1669700151.4955502,1669700144.30941,1.764893
1669700151.4957116,1669700144.32504,-18.03864
1669700151.4958773,1669700144.34066,-38.69562
1669700151.6950278,1669700144.35629,-58.41446
1669700151.696242,1669700144.37191,-75.72141
1669700151.6965423,1669700144.38754,-89.83337
1669700151.6967516,1669700144.40316,-100.8219
1669700151.6969361,1669700144.41879,-109.4727
1669700151.6971083,1669700144.43442,-116.9874
1669700151.6972752,1669700144.45004,-124.6806
1669700151.6974382,1669700144.46567,-133.6749
1669700151.6976008,1669700144.48129,-144.6848
1669700151.6977613,1669700144.49692,-157.6035
1669700151.6979227,1669700144.51254,-171.2317
1669700151.8750894,1669700144.52817,-183.2057
1669700151.8762627,1669700144.5438,-190.3698
1669700151.8765259,1669700144.55942,-189.543
1669700151.8767252,1669700144.57505,-178.5664
1669700151.876906,1669700144.59067,-157.0704
1669700151.8770788,1669700144.6063,-126.6023
1669700151.8772488,1669700144.62192,-90.19934
1669700151.8774145,1669700144.63755,-51.47134
1669700151.8775795,1669700144.65318,-13.66637
1669700151.8777428,1669700144.6688,20.9303
1669700151.877904,1669700144.68443,51.12177
1669700152.011128,1669700144.70005,76.52386
1669700152.0113463,1669700144.71568,97.19204
1669700152.0114992,1669700144.7313,113.2903
1669700152.0116343,1669700144.74693,124.9189
1669700152.011763,1669700144.76256,132.2274
1669700152.0118854,1669700144.77818,135.5647
1669700152.012006,1669700144.79381,135.6169
1669700152.012126,1669700144.80943,133.3669
1669700152.0122454,1669700144.82506,129.9187
1669700152.0123656,1669700144.84068,126.1782
1669700152.0124867,1669700144.85631,122.715
1669700152.1675,1669700144.87194,119.7638
1669700152.1686845,1669700144.88756,117.4029
1669700152.168949,1669700144.90319,115.7899
1669700152.169149,1669700144.91881,115.2441
1669700152.1693532,1669700144.93444,116.0813
1669700152.1695304,1669700144.95006,118.3472
1669700152.1696997,1669700144.96569,121.6001
1669700152.1698658,1669700144.98132,124.9096
1669700152.170031,1669700144.99694,127.2272
1669700152.1701953,1669700145.01257,127.7754
1669700152.1703851,1669700145.02819,126.4532
1669700152.3474917,1669700145.04382,123.8347
1669700152.3486452,1669700145.05945,120.9515
1669700152.3489087,1669700145.07507,118.7928
1669700152.3491058,1669700145.0907,117.8314
1669700152.3492858,1669700145.10632,117.8722
1669700152.3494596,1669700145.12195,118.1075
1669700152.3496282,1669700145.13757,117.5327
1669700152.349793,1669700145.1532,115.2894
1669700152.349958,1669700145.16883,110.9435
1669700152.3501198,1669700145.18445,104.5331
1669700152.350285,1669700145.20008,96.34843
1669700152.5275207,1669700145.2157,86.6525
1669700152.5286212,1669700145.23133,75.49823
1669700152.5288584,1669700145.24695,62.73715
1669700152.5290508,1669700145.26258,48.10812
1669700152.5292287,1669700145.27821,31.53726
1669700152.5294003,1669700145.29383,13.28876
1669700152.5295708,1669700145.30946,-5.962372
1669700152.5297368,1669700145.32508,-25.26935
1669700152.5299027,1669700145.34071,-43.63925
1669700152.5300674,1669700145.35633,-60.32007
1669700152.5302327,1669700145.37196,-75.02643
1669700152.753224,1669700145.38759,-87.95041
1669700152.7544012,1669700145.40321,-99.78748
1669700152.7553298,1669700145.41884,-111.4849
1669700152.755597,1669700145.43446,-124.0688
1669700152.7557938,1669700145.45009,-138.2804
1669700152.7559736,1669700145.46571,-154.2605
1669700152.7561467,1669700145.48134,-171.2498
1669700152.7563167,1669700145.49697,-187.4185
1669700152.756481,1669700145.51259,-200.1528
1669700152.7566462,1669700145.52822,-206.5851
1669700152.7568085,1669700145.54384,-204.5029
1669700152.8650198,1669700145.55947,-193.0793
1669700152.866157,1669700145.57509,-173.294
1669700152.8664544,1669700145.59072,-147.6934
1669700152.866661,1669700145.60635,-119.7003
1669700152.8668396,1669700145.62197,-92.64496
1669700152.8670099,1669700145.6376,-69.00385
1669700152.8671799,1669700145.65322,-49.98526
1669700152.8673449,1669700145.66885,-35.62448
1669700152.8675072,1669700145.68447,-25.2309
1669700152.867667,1669700145.7001,-17.85867
1669700152.8678284,1669700145.71573,-12.66946
1669700153.069067,1669700145.73135,-9.083801
1669700153.0702302,1669700145.74698,-6.675598
1669700153.0705333,1669700145.7626,-5.073669
1669700153.0707333,1669700145.77823,-3.804138
1669700153.0709178,1669700145.79385,-2.339325
1669700153.07109,1669700145.80948,-0.1876526
1669700153.0712576,1669700145.82511,2.960358
1669700153.0714204,1669700145.84073,7.179382
1669700153.071585,1669700145.85636,12.3537
1669700153.071748,1669700145.87198,18.26062
1669700153.0719128,1669700145.88761,24.75049
1669700153.2480114,1669700145.90323,31.67218
1669700153.2483642,1669700145.91886,38.89752
1669700153.2486963,1669700145.93449,46.0929
1669700153.2490234,1669700145.95011,52.70178
1669700153.249102,1669700145.96574,58.01471
1669700153.2491736,1669700145.98136,61.3761
1669700153.249239,1669700145.99699,62.47705
1669700153.2493048,1669700146.01261,61.4447
1669700153.2493677,1669700146.02824,58.84399
1669700153.2494311,1669700146.04387,55.37457
1669700153.2494936,1669700146.05949,51.5813
1669700153.404967,1669700146.07512,47.60919
1669700153.4058113,1669700146.09074,43.20428
1669700153.4061918,1669700146.10637,37.89124
1669700153.4063756,1669700146.12199,31.23724
1669700153.4065204,1669700146.13762,23.14172
1669700153.4066505,1669700146.15325,13.88092
1669700153.406769,1669700146.16887,4.068726
1669700153.4068885,1669700146.1845,-5.599365
1669700153.4070103,1669700146.20012,-14.55872
1669700153.4071312,1669700146.21575,-22.6059
1669700153.4072516,1669700146.23137,-29.98956
1669700153.58511,1669700146.247,-37.40033
1669700153.5861664,1669700146.26263,-45.88092
1669700153.5866015,1669700146.27825,-56.42523
1669700153.5868077,1669700146.29388,-69.56506
1669700153.5870275,1669700146.3095,-84.74353
1669700153.5872092,1669700146.32513,-100.0444
1669700153.587376,1669700146.34075,-112.3051
1669700153.5875704,1669700146.35638,-117.9208
1669700153.5877395,1669700146.37201,-113.9273
1669700153.587905,1669700146.38763,-99.10632
1669700153.5880697,1669700146.40326,-74.56763
1669700153.7201042,1669700146.41888,-43.40698
1669700153.7207317,1669700146.43451,-9.764771
1669700153.7214434,1669700146.45013,22.46423
1669700153.721671,1669700146.46576,50.55139
1669700153.7218034,1669700146.48139,73.3006
1669700153.7219312,1669700146.49701,90.7605
1669700153.7220535,1669700146.51264,103.5886
1669700153.7221737,1669700146.52826,112.5265
1669700153.722294,1669700146.54389,118.1388
1669700153.722437,1669700146.55951,120.9478
1669700153.722557,1669700146.57514,121.5701
1669700153.9000764,1669700146.59077,120.8107
1669700153.901245,1669700146.60639,119.5193
1669700153.9015012,1669700146.62202,118.3311
1669700153.9017096,1669700146.63764,117.498
1669700153.9018922,1669700146.65327,116.8741
1669700153.9020658,1669700146.66889,116.1665
1669700153.9022653,1669700146.68452,115.2119
1669700153.902474,1669700146.70015,114.2096
1669700153.90264,1669700146.71577,113.6846
1669700153.9028049,1669700146.7314,114.2361
1669700153.9029672,1669700146.74702,116.222
1669700154.0611625,1669700146.76265,119.4906
1669700154.0613465,1669700146.77827,123.3798
1669700154.0615165,1669700146.7939,126.8622
1669700154.0616848,1669700146.80953,128.9303
1669700154.0618494,1669700146.82515,128.8944
1669700154.062014,1669700146.84078,126.6029
1669700154.0621772,1669700146.8564,122.4929
1669700154.0623722,1669700146.87203,117.389
1669700154.0625484,1669700146.88765,112.2328
1669700154.062715,1669700146.90328,107.663
1669700154.0628796,1669700146.91891,103.8224
1669700154.2390122,1669700146.93453,100.3199
1669700154.2390685,1669700146.95016,96.50647
1669700154.239116,1669700146.96578,91.83252
1669700154.239163,1669700146.98141,86.13367
1669700154.2392075,1669700146.99703,79.80469
1669700154.2392533,1669700147.01266,73.61292
1669700154.2392993,1669700147.02829,68.39124
1669700154.2393453,1669700147.04391,64.69482
1669700154.2393918,1669700147.05954,62.66565
1669700154.239438,1669700147.07516,61.94714
1669700154.2394836,1669700147.09079,61.82446
1669700154.418273,1669700147.10641,61.35901
1669700154.419474,1669700147.12204,59.63831
1669700154.4203393,1669700147.13767,56.19067
1669700154.420575,1669700147.15329,51.34058
1669700154.420766,1669700147.16892,46.48706
1669700154.4209516,1669700147.18454,43.87756
1669700154.4211285,1669700147.20017,45.94263
1669700154.4213102,1669700147.2158,54.3335
1669700154.421484,1669700147.23142,69.16748
1669700154.4216566,1669700147.24705,88.83484
1669700154.4218307,1669700147.26267,110.5643
1669700154.5875938,1669700147.2783,131.4196
1669700154.587789,1669700147.29392,149.2167
1669700154.587978,1669700147.30955,163.0355
1669700154.5881827,1669700147.32518,173.0962
1669700154.5883765,1669700147.3408,180.2856
1669700154.588552,1669700147.35643,185.5133
1669700154.5887244,1669700147.37205,189.3774
1669700154.5888965,1669700147.38768,192.0164
1669700154.589068,1669700147.4033,193.2036
1669700154.589239,1669700147.41893,192.5867
1669700154.5894077,1669700147.43456,189.8162
1669700154.8016884,1669700147.45018,184.7842
1669700154.8027897,1669700147.46581,177.713
1669700154.8031037,1669700147.48143,169.137
1669700154.8033187,1669700147.49706,159.78
1669700154.8042886,1669700147.51268,150.3602
1669700154.8045654,1669700147.52831,141.3118
1669700154.8047738,1669700147.54394,132.7437
1669700154.8049595,1669700147.55956,124.4961
1669700154.8051417,1669700147.57519,116.3134
1669700154.8053186,1669700147.59081,108.0698
1669700154.8054938,1669700147.60644,99.82123
1669700154.9581063,1669700147.62206,91.74255
1669700154.9589412,1669700147.63769,83.9212
1669700154.9595542,1669700147.65332,76.16449
1669700154.9597144,1669700147.66894,67.86365
1669700154.959858,1669700147.68457,58.10974
1669700154.9599924,1669700147.70019,45.91101
1669700154.9601243,1669700147.71582,30.5318
1669700154.9602559,1669700147.73144,11.80835
1669700154.9603837,1669700147.74707,-9.670166
1669700154.96051,1669700147.7627,-32.53497
1669700154.9606361,1669700147.77832,-54.85626
1669700155.1153538,1669700147.79395,-74.4942
1669700155.1164982,1669700147.80957,-89.6116
1669700155.1168005,1669700147.8252,-99.24915
1669700155.1170259,1669700147.84082,-103.7164
1669700155.1172156,1669700147.85645,-104.8102
1669700155.1173933,1669700147.87208,-105.372
1669700155.1175704,1669700147.8877,-108.4441
1669700155.1177444,1669700147.90333,-116.146
1669700155.1179166,1669700147.91895,-128.7888
1669700155.1180913,1669700147.93458,-144.6671
1669700155.1182625,1669700147.9502,-160.6446
1669700155.2733004,1669700147.96583,-173.3613
1669700155.2741363,1669700147.98146,-180.4365
1669700155.2744648,1669700147.99708,-181.3138
1669700155.2746274,1669700148.01271,-177.2444
1669700155.274767,1669700148.02833,-170.7943
1669700155.2749019,1669700148.04396,-164.9996
1669700155.2750318,1669700148.05958,-162.6
1669700155.275163,1669700148.07521,-165.5457
1669700155.2752922,1669700148.09084,-174.6967
1669700155.2754216,1669700148.10646,-189.7052
1669700155.2755492,1669700148.12209,-208.8996
1669700155.4528863,1669700148.13771,-229.319
1669700155.4540844,1669700148.15334,-247.0097
1669700155.4543805,1669700148.16896,-257.6489
1669700155.454591,1669700148.18459,-257.4333
1669700155.4547746,1669700148.20022,-244.0341
1669700155.4549453,1669700148.21584,-217.2621
1669700155.4551117,1669700148.23147,-179.2192
1669700155.4552772,1669700148.24709,-133.9625
1669700155.4554355,1669700148.26272,-86.64365
1669700155.455594,1669700148.27834,-42.59892
1669700155.4557528,1669700148.29397,-6.405579
1669700155.6326408,1669700148.3096,18.88144
1669700155.6338365,1669700148.32522,32.18224
1669700155.6340706,1669700148.34085,34.51485
1669700155.6342592,1669700148.35647,28.61052
1669700155.634477,1669700148.3721,18.23444
1669700155.6346476,1669700148.38772,7.168396
1669700155.6348104,1669700148.40335,-1.622086
1669700155.6349747,1669700148.41898,-6.489029
1669700155.6351385,1669700148.4346,-7.081528
1669700155.6353014,1669700148.45023,-3.967972
1669700155.6354616,1669700148.46585,1.754913
1669700155.8125474,1669700148.48148,8.702225
1669700155.8137279,1669700148.4971,15.09276
1669700155.81396,1669700148.51273,18.82652
1669700155.8141503,1669700148.52836,17.75922
1669700155.8143606,1669700148.54398,10.43239
1669700155.8145444,1669700148.55961,-3.175446
1669700155.8147128,1669700148.57523,-21.31136
1669700155.8148825,1669700148.59086,-40.83997
1669700155.81505,1669700148.60648,-58.28436
1669700155.8152173,1669700148.62211,-70.95714
1669700155.815382,1669700148.63774,-77.60907
1669700155.9699464,1669700148.65336,-78.46524
1669700155.970297,1669700148.66899,-74.71774
1669700155.970838,1669700148.68461,-67.93481
1669700155.970977,1669700148.70024,-59.66327
1669700155.971082,1669700148.71586,-51.39914
1669700155.9711761,1669700148.73149,-44.5527
1669700155.971267,1669700148.74712,-40.4024
1669700155.9713583,1669700148.76274,-39.73578
1669700155.9714463,1669700148.77837,-42.51492
1669700155.9715319,1669700148.79399,-47.76379
1669700155.971617,1669700148.80962,-53.79773
1669700156.1501286,1669700148.82524,-58.79718
1669700156.1512592,1669700148.84087,-61.41071
1669700156.1514893,1669700148.8565,-61.25046
1669700156.1516767,1669700148.87212,-58.89792
1669700156.1518514,1669700148.88775,-55.67789
1669700156.152019,1669700148.90337,-53.10083
1669700156.1521037,1669700148.919,-52.31415
1669700156.152156,1669700148.93462,-53.74506
1669700156.1522012,1669700148.95025,-57.00626
1669700156.1522458,1669700148.96588,-61.15811
1669700156.1522882,1669700148.9815,-65.15936
1669700156.3114305,1669700148.99713,-68.3316
1669700156.311616,1669700149.01275,-70.56491
1669700156.3117883,1669700149.02838,-72.37308
1669700156.3119564,1669700149.044,-74.68835
1669700156.3121195,1669700149.05963,-78.51968
1669700156.3122811,1669700149.07526,-84.62534
1669700156.3124404,1669700149.09088,-93.02646
1669700156.3126001,1669700149.10651,-102.7435
1669700156.3127618,1669700149.12213,-111.6534
1669700156.3129218,1669700149.13776,-116.7768
1669700156.3130808,1669700149.15338,-114.9703
1669700156.4649038,1669700149.16901,-103.8861
1669700156.4652483,1669700149.18464,-82.87695
1669700156.4658222,1669700149.20026,-53.39584
1669700156.4659722,1669700149.21589,-18.76865
1669700156.4660773,1669700149.23151,16.79288
1669700156.4661736,1669700149.24714,49.3103
1669700156.466267,1669700149.26276,76.04857
1669700156.4663737,1669700149.27839,95.90762
1669700156.4664605,1669700149.29402,109.2449
1669700156.466548,1669700149.30964,117.2704
1669700156.466632,1669700149.32527,121.4004
1669700156.6677675,1669700149.34089,122.817
1669700156.668925,1669700149.35652,122.3622
1669700156.6692257,1669700149.37214,120.7455
1669700156.6694338,1669700149.38777,118.6954
1669700156.66962,1669700149.4034,117.1176
1669700156.669798,1669700149.41902,116.924
1669700156.669969,1669700149.43465,118.8167
1669700156.6701334,1669700149.45027,123.0659
1669700156.6702995,1669700149.4659,129.3877
1669700156.6705062,1669700149.48152,137.016
1669700156.6706707,1669700149.49715,144.8243
1669700156.8257668,1669700149.51278,151.5711
1669700156.8275242,1669700149.5284,156.075
1669700156.8278232,1669700149.54403,157.4424
1669700156.828028,1669700149.55965,155.2057
1669700156.8282113,1669700149.57528,149.3349
1669700156.8283825,1669700149.5909,140.1495
1669700156.8285475,1669700149.60653,128.1147
1669700156.828713,1669700149.62216,113.7014
1669700156.8288772,1669700149.63778,97.28021
1669700156.8290439,1669700149.65341,79.23898
1669700156.8292067,1669700149.66903,60.09436
1669700157.0057747,1669700149.68466,40.5925
1669700157.0069282,1669700149.70028,21.62503
1669700157.0078423,1669700149.71591,4.037384
1669700157.0081081,1669700149.73154,-11.5611
1669700157.0083063,1669700149.74716,-24.96609
1669700157.0084846,1669700149.76279,-36.26971
1669700157.008655,1669700149.77841,-45.83026
1669700157.0088253,1669700149.79404,-54.01843
1669700157.00899,1669700149.80966,-61.17688
1669700157.0091522,1669700149.82529,-67.49127
1669700157.0093129,1669700149.84092,-72.98007
1669700157.2082915,1669700149.85654,-77.52515
1669700157.209497,1669700149.87217,-80.91937
1669700157.209982,1669700149.88779,-83.07355
1669700157.2107337,1669700149.90342,-84.11029
1669700157.2109609,1669700149.91905,-84.54333
1669700157.2111464,1669700149.93467,-85.24774
1669700157.21132,1669700149.9503,-87.30069
1669700157.2114902,1669700149.96592,-91.55743
1669700157.211658,1669700149.98155,-98.13901
1669700157.211823,1669700149.99717,-105.9473
1669700157.211985,1669700150.0128,-112.6057
1669700157.3426688,1669700150.02843,-114.9294
1669700157.3438983,1669700150.04405,-109.882
1669700157.3441634,1669700150.05968,-95.7337
1669700157.3443604,1669700150.0753,-72.81125
1669700157.3445432,1669700150.09093,-43.55688
1669700157.344718,1669700150.10655,-11.77475
1669700157.344884,1669700150.12218,18.61957
1669700157.3450475,1669700150.13781,44.76984
1669700157.34521,1669700150.15343,65.45734
1669700157.3453708,1669700150.16906,80.93634
1669700157.3455305,1669700150.18468,92.27469
1669700157.5001276,1669700150.20031,100.5251
1669700157.5134609,1669700150.21593,106.2426
1669700157.5136209,1669700150.23156,109.4584
1669700157.5137312,1669700150.24719,109.9705
1669700157.5138288,1669700150.26281,107.7645
1669700157.5139225,1669700150.27844,103.2386
1669700157.514012,1669700150.29406,97.26044
1669700157.5140994,1669700150.30969,90.9451
1669700157.5141869,1669700150.32531,85.50305
1669700157.5142715,1669700150.34094,82.03476
1669700157.5143802,1669700150.35657,81.39532
1669700157.7033224,1669700150.37219,84.0036
1669700157.7036731,1669700150.38782,89.51221
1669700157.703882,1669700150.40344,96.39868
1669700157.7040627,1669700150.41907,101.7828
1669700157.7042336,1669700150.43469,101.8071
1669700157.7044034,1669700150.45032,92.6416
1669700157.7045681,1669700150.46595,71.87207
1669700157.7047281,1669700150.48157,39.62231
1669700157.7048864,1669700150.4972,-1.06958
1669700157.705046,1669700150.51282,-44.95453
1669700157.705203,1669700150.52845,-85.95837
1669700157.860086,1669700150.54407,-118.7876
1669700157.8608768,1669700150.5597,-140.0128
1669700157.8610444,1669700150.57533,-148.4271
1669700157.8611782,1669700150.59095,-144.7911
1669700157.8613026,1669700150.60658,-131.1876
1669700157.8614457,1669700150.6222,-110.4869
1669700157.861571,1669700150.63783,-85.8385
1669700157.8616915,1669700150.65345,-60.3598
1669700157.8618147,1669700150.66908,-36.75214
1669700157.8619366,1669700150.68471,-17.07184
1669700157.862058,1669700150.70033,-2.680237
1669700158.0176525,1669700150.71596,5.650757
1669700158.0188298,1669700150.73158,7.502808
1669700158.019056,1669700150.74721,2.650513
1669700158.0192451,1669700150.76283,-8.885193
1669700158.0194194,1669700150.77846,-26.65527
1669700158.019586,1669700150.79409,-49.63507
1669700158.019752,1669700150.80971,-76.29547
1669700158.0199134,1669700150.82534,-104.8362
1669700158.0200737,1669700150.84096,-133.4695
1669700158.020235,1669700150.85659,-160.6199
1669700158.0203912,1669700150.87221,-185.0447
1669700158.1977746,1669700150.88784,-205.7869
1669700158.199259,1669700150.90347,-222.31
1669700158.1995165,1669700150.91909,-234.636
1669700158.1997135,1669700150.93472,-243.3737
1669700158.1998916,1669700150.95034,-249.5214
1669700158.2000585,1669700150.96597,-253.7637
1669700158.200226,1669700150.98159,-255.7882
1669700158.2003899,1669700150.99722,-253.7873
1669700158.2005517,1669700151.01285,-244.8405
1669700158.2007134,1669700151.02847,-225.9614
1669700158.2008746,1669700151.0441,-195.507
1669700158.3776953,1669700151.05972,-154.2501
1669700158.3782115,1669700151.07535,-105.4381
1669700158.379169,1669700151.09097,-53.97571
1669700158.3793972,1669700151.1066,-4.934265
1669700158.3795831,1669700151.12223,37.82178
1669700158.3797584,1669700151.13785,72.37451
1669700158.3799253,1669700151.15348,98.72095
1669700158.380091,1669700151.1691,118.1107
1669700158.3802538,1669700151.18473,132.2975
1669700158.3804147,1669700151.20035,142.8761
1669700158.3805764,1669700151.21598,151.0165
1669700158.5610175,1669700151.23161,157.4444
1669700158.5611978,1669700151.24723,162.6147
1669700158.5613656,1669700151.26286,166.8782
1669700158.561529,1669700151.27848,170.6466
1669700158.5616918,1669700151.29411,174.4305
1669700158.561853,1669700151.30973,178.7539
1669700158.562012,1669700151.32536,183.9597
1669700158.5621724,1669700151.34099,189.9432
1669700158.5623674,1669700151.35661,196.0665
1669700158.5625415,1669700151.37224,201.153
1669700158.5627034,1669700151.38786,203.8527
1669700158.7150433,1669700151.40349,203.114
1669700158.7158792,1669700151.41911,198.595
1669700158.7160473,1669700151.43474,190.9444
1669700158.7161875,1669700151.45037,181.7806
1669700158.7163167,1669700151.46599,173.4253
1669700158.7164395,1669700151.48162,168.367
1669700158.7165606,1669700151.49724,168.732
1669700158.7166827,1669700151.51287,175.4766
1669700158.7168028,1669700151.52849,187.913
1669700158.716923,1669700151.54412,203.4202
1669700158.7170408,1669700151.55975,217.8237
1669700158.8959162,1669700151.57537,226.4128
1669700158.898041,1669700151.591,225.2778
1669700158.8982713,1669700151.60662,212.5197
1669700158.8985157,1669700151.62225,188.7092
1669700158.898697,1669700151.63787,156.5449
1669700158.8988688,1669700151.6535,119.611
1669700158.8990362,1669700151.66913,81.00989
1669700158.899204,1669700151.68475,42.45856
1669700158.89937,1669700151.70038,3.895386
1669700158.899537,1669700151.716,-36.14423
1669700158.8997016,1669700151.73163,-79.85718
1669700159.0531664,1669700151.74725,-129.0349
1669700159.054029,1669700151.76288,-183.9244
1669700159.0545948,1669700151.77851,-242.2338
1669700159.054746,1669700151.79413,-298.9778
1669700159.0548806,1669700151.80976,-347.3473
1669700159.0550075,1669700151.82538,-380.7778
1669700159.0551314,1669700151.84101,-395.2454
1669700159.055252,1669700151.85663,-390.8929
1669700159.0553715,1669700151.87226,-372.0372
1669700159.0554943,1669700151.88789,-345.4752
1669700159.055614,1669700151.90351,-318.0461
1669700159.2328098,1669700151.91914,-294.4982
1669700159.2338626,1669700151.93476,-276.6553
1669700159.2340922,1669700151.95039,-263.7692
1669700159.2342806,1669700151.96601,-253.5236
1669700159.2345114,1669700151.98164,-242.9931
1669700159.2346861,1669700151.99727,-229.1255
1669700159.234853,1669700152.01289,-209.15
1669700159.2350156,1669700152.02852,-181.0832
1669700159.2352037,1669700152.04414,-144.5056
1669700159.2353735,1669700152.05977,-101.17
1669700159.2355394,1669700152.07539,-54.9306
1669700159.412695,1669700152.09102,-10.7962
1669700159.413724,1669700152.10665,26.54065
1669700159.4139569,1669700152.12227,53.92914
1669700159.4141855,1669700152.1379,70.51886
1669700159.4144027,1669700152.15352,77.50653
1669700159.4145892,1669700152.16915,77.38654
1669700159.414779,1669700152.18478,73.15143
1669700159.4149582,1669700152.2004,67.60297
1669700159.415125,1669700152.21603,63.03302
1669700159.4152906,1669700152.23165,60.93005
1669700159.4154575,1669700152.24728,61.9165
1669700159.5931368,1669700152.2629,65.63538
1669700159.594266,1669700152.27853,70.99542
1669700159.6029766,1669700152.29416,76.51245
1669700159.6032395,1669700152.30978,80.86407
1669700159.6034348,1669700152.32541,83.27094
1669700159.60361,1669700152.34103,83.63007
1669700159.6037748,1669700152.35666,82.34198
1669700159.6039424,1669700152.37228,79.93994
1669700159.60411,1669700152.38791,76.82648
1669700159.6042757,1669700152.40354,73.11304
1669700159.604443,1669700152.41916,68.81238
1669700159.728168,1669700152.43479,63.92987
1669700159.7293727,1669700152.45041,58.60492
1669700159.7295973,1669700152.46604,53.10138
1669700159.7297843,1669700152.48166,47.68958
1669700159.7299597,1669700152.49729,42.61102
1669700159.730129,1669700152.51292,38.04633
1669700159.7302957,1669700152.52854,34.12311
1669700159.730506,1669700152.54417,30.83069
1669700159.730669,1669700152.55979,27.96344
1669700159.7308302,1669700152.57542,25.0462
1669700159.7309785,1669700152.59104,21.3847
1669700159.908322,1669700152.60667,16.28186
1669700159.9086998,1669700152.6223,9.287964
1669700159.9089155,1669700152.63792,0.4803467
1669700159.9091084,1669700152.65355,-9.561584
1669700159.9092846,1669700152.66917,-19.87433
1669700159.9094548,1669700152.6848,-29.49628
1669700159.9096246,1669700152.70042,-37.78149
1669700159.9097915,1669700152.71605,-44.62726
1669700159.9099581,1669700152.73168,-50.4978
1669700159.9101257,1669700152.7473,-56.26428
1669700159.9102886,1669700152.76293,-62.99249
1669700160.0877476,1669700152.77855,-71.50134
1669700160.0888066,1669700152.79418,-81.96393
1669700160.0890734,1669700152.8098,-93.42072
1669700160.0892682,1669700152.82543,-103.6165
1669700160.0894496,1669700152.84106,-109.2338
1669700160.0896206,1669700152.85668,-106.8035
1669700160.089786,1669700152.87231,-93.83118
1669700160.0899522,1669700152.88793,-69.85297
1669700160.0901127,1669700152.90356,-36.82037
1669700160.0902736,1669700152.91918,1.48584
1669700160.0904748,1669700152.93481,40.63086
1669700160.2492638,1669700152.95044,76.97864
1669700160.2494464,1669700152.96606,108.5832
1669700160.249619,1669700152.98169,135.2117
1669700160.2497902,1669700152.99731,157.6002
1669700160.2499573,1669700153.01294,176.413
1669700160.2501256,1669700153.02856,191.5366
1669700160.250293,1669700153.04419,202.0133
1669700160.2505002,1669700153.05982,206.7005
1669700160.250665,1669700153.07544,205.0624
1669700160.250826,1669700153.09107,197.7888
1669700160.2509885,1669700153.10669,186.7697
1669700160.4252279,1669700153.12232,174.473
1669700160.4272,1669700153.13794,163.1517
1669700160.4275029,1669700153.15357,154.0011
1669700160.4277146,1669700153.1692,146.8687
1669700160.427901,1669700153.18482,140.4205
1669700160.4280758,1669700153.20045,132.7233
1669700160.4282439,1669700153.21607,121.991
1669700160.4284022,1669700153.2317,107.3028
1669700160.428563,1669700153.24732,89.04797
1669700160.4287274,1669700153.26295,68.93225
1669700160.4288895,1669700153.27858,49.62866
1669700160.6052139,1669700153.2942,33.95508
1669700160.6062896,1669700153.30983,23.98926
1669700160.6065543,1669700153.32545,20.26361
1669700160.6067426,1669700153.34108,21.49524
1669700160.6069176,1669700153.3567,24.83008
1669700160.6070876,1669700153.37233,26.83051
1669700160.6072567,1669700153.38796,24.65967
1669700160.6074207,1669700153.40358,17.13904
1669700160.6075842,1669700153.41921,5.297302
1669700160.6077468,1669700153.43483,-8.027405
1669700160.607908,1669700153.45046,-19.16046
1669700160.8077168,1669700153.46608,-24.91516
1669700160.8090224,1669700153.48171,-23.71259
1669700160.80932,1669700153.49734,-16.10199
1669700160.8095598,1669700153.51296,-4.445496
1669700160.809752,1669700153.52859,8.016479
1669700160.8099248,1669700153.54421,18.26776
1669700160.8100915,1669700153.55984,24.48956
1669700160.8102546,1669700153.57546,26.41571
1669700160.81046,1669700153.59109,25.1402
1669700160.810626,1669700153.60672,22.37683
1669700160.8107877,1669700153.62234,19.68103
1669700160.9662523,1669700153.63797,17.80273
1669700160.9792223,1669700153.65359,16.47656
1669700160.979522,1669700153.66922,14.6391
1669700160.979728,1669700153.68484,11.04108
1669700160.9799085,1669700153.70047,4.993774
1669700160.980082,1669700153.7161,-3.18689
1669700160.9802506,1669700153.73172,-11.99274
1669700160.9804194,1669700153.74735,-19.02606
1669700160.9805858,1669700153.76297,-21.69049
1669700160.9807477,1669700153.7786,-18.13483
1669700160.9809096,1669700153.79422,-8.109192
1669700161.1234663,1669700153.80985,6.55365
1669700161.1248832,1669700153.82548,22.07916
1669700161.1251154,1669700153.8411,33.78668
1669700161.1253018,1669700153.85673,37.29523
1669700161.125474,1669700153.87235,29.74133
1669700161.1256433,1669700153.88798,10.28119
1669700161.1258123,1669700153.9036,-20.35181
1669700161.1259763,1669700153.91923,-60.98364
1669700161.1261375,1669700153.93486,-110.8336
1669700161.1262999,1669700153.95048,-169.3403
1669700161.1264951,1669700153.96611,-234.8599
1669700161.2806704,1669700153.98173,-303.0245
1669700161.281823,1669700153.99736,-366.2556
1669700161.2820876,1669700154.01298,-415.2228
1669700161.2822833,1669700154.02861,-441.9616
1669700161.282497,1669700154.04424,-443.2187
1669700161.282672,1669700154.05986,-421.9724
1669700161.2828393,1669700154.07549,-386.2118
1669700161.2830026,1669700154.09111,-345.5505
1669700161.2831676,1669700154.10674,-307.4902
1669700161.2833333,1669700154.12236,-275.2455
1669700161.283498,1669700154.13799,-247.9917
1669700161.5070589,1669700154.15362,-223.0073
1669700161.5086048,1669700154.16924,-198.0954
1669700161.508905,1669700154.18487,-172.8589
1669700161.5091166,1669700154.20049,-148.277
1669700161.5093029,1669700154.21612,-125.4069
1669700161.5094798,1669700154.23174,-104.178
1669700161.509652,1669700154.24737,-83.29865
1669700161.509819,1669700154.263,-61.12311
1669700161.5099902,1669700154.27862,-36.80389
1669700161.5101552,1669700154.29425,-10.97705
1669700161.510389,1669700154.30987,14.39825
1669700161.6626143,1669700154.3255,36.76453
1669700161.6629403,1669700154.34113,54.1911
1669700161.6630137,1669700154.35675,66.07489
1669700161.6630628,1669700154.37238,73.36725
1669700161.6631055,1669700154.388,78.1319
1669700161.6631446,1669700154.40363,82.67456
1669700161.6631846,1669700154.41925,88.61536
1669700161.663222,1669700154.43488,96.30939
1669700161.6632595,1669700154.45051,104.8408
1669700161.6632955,1669700154.46613,112.593
1669700161.6633332,1669700154.48176,118.1547
1669700161.8202243,1669700154.49738,121.0516
1669700161.8212821,1669700154.51301,122.0271
1669700161.8215458,1669700154.52863,122.7186
1669700161.8217406,1669700154.54426,124.9166
1669700161.821921,1669700154.55989,129.7872
1669700161.822095,1669700154.57551,137.3745
1669700161.8222632,1669700154.59114,146.672
1669700161.8224728,1669700154.60676,156.0462
1669700161.8226466,1669700154.62239,163.8467
1669700161.8228137,1669700154.63801,168.8805
1669700161.8229804,1669700154.65364,170.592
1669700162.0456622,1669700154.66927,169.0562
1669700162.046769,1669700154.68489,164.692
1669700162.0470493,1669700154.70052,158.0615
1669700162.0472472,1669700154.71614,149.4504
1669700162.047425,1669700154.73177,138.5904
1669700162.0475945,1669700154.74739,124.2988
1669700162.047761,1669700154.76302,104.5906
1669700162.0479224,1669700154.77865,77.24994
1669700162.048086,1669700154.79427,40.83954
1669700162.0482454,1669700154.8099,-4.156921
1669700162.0484056,1669700154.82552,-54.73468
1669700162.1358051,1669700154.84115,-105.512
1669700162.1361094,1669700154.85677,-150.0021
1669700162.1363168,1669700154.8724,-182.2444
1669700162.1364977,1669700154.88803,-198.3851
1669700162.136699,1669700154.90365,-197.5073
1669700162.1368704,1669700154.91928,-181.4891
1669700162.1370387,1669700154.9349,-154.2474
1669700162.137204,1669700154.95053,-120.5754
1669700162.1373713,1669700154.96615,-85.25491
1669700162.13754,1669700154.98178,-52.33044
1669700162.1377041,1669700154.99741,-24.83096
1669700162.31865,1669700155.01303,-4.420654
1669700162.318829,1669700155.02866,8.730194
1669700162.3189995,1669700155.04428,15.92505
1669700162.3191655,1669700155.05991,19.65863
1669700162.3193264,1669700155.07553,22.87933
1669700162.319488,1669700155.09116,28.22028
1669700162.319647,1669700155.10679,37.21094
1669700162.3198056,1669700155.12241,50.06976
1669700162.319963,1669700155.13804,65.80597
1669700162.3201213,1669700155.15366,82.87134
1669700162.3202837,1669700155.16929,99.82739
1669700162.4949963,1669700155.18491,115.8337
1669700162.4952714,1669700155.20054,130.8176
1669700162.495488,1669700155.21617,145.2379
1669700162.495566,1669700155.23179,159.8059
1669700162.495598,1669700155.24742,175.0512
1669700162.4956586,1669700155.26304,191.2485
1669700162.4956882,1669700155.27867,208.3164
1669700162.4957156,1669700155.29429,225.9438
1669700162.4957423,1669700155.30992,243.6398
1669700162.4957693,1669700155.32555,260.7778
1669700162.49583,1669700155.34117,276.6419
1669700162.697694,1669700155.3568,290.3146
1669700162.6987948,1669700155.37242,300.6252
1669700162.699028,1669700155.38805,306.1151
1669700162.6992188,1669700155.40367,305.2109
1669700162.6993968,1669700155.4193,296.5367
1669700162.699566,1669700155.43493,279.3329
1669700162.6997318,1669700155.45055,253.7661
1669700162.699898,1669700155.46618,221.0001
1669700162.7000654,1669700155.4818,182.9436
1669700162.7002296,1669700155.49743,141.7343
1669700162.7003908,1669700155.51305,99.28424
1669700162.8589249,1669700155.52868,56.86139
1669700162.8591158,1669700155.54431,14.96771
1669700162.8592892,1669700155.55993,-26.54559
1669700162.8594558,1669700155.57556,-68.15015
1669700162.859623,1669700155.59118,-110.3897
1669700162.859788,1669700155.60681,-153.6213
1669700162.8599508,1669700155.62243,-197.8194
1669700162.8601139,1669700155.63806,-242.4535
1669700162.8602781,1669700155.65369,-286.3016
1669700162.8604417,1669700155.66931,-327.3878
1669700162.8606062,1669700155.68494,-363.0552
1669700163.0136075,1669700155.70056,-390.3959
1669700163.0209987,1669700155.71619,-406.9651
1669700163.0213,1669700155.73181,-411.6725
1669700163.021506,1669700155.74744,-405.4083
1669700163.0216908,1669700155.76307,-391.1108
1669700163.021866,1669700155.77869,-373.0915
1669700163.0220346,1669700155.79432,-355.7311
1669700163.0222,1669700155.80994,-342.1331
1669700163.0223875,1669700155.82557,-333.0953
1669700163.022565,1669700155.84119,-327.0809
1669700163.0227334,1669700155.85682,-320.9128
1669700163.216005,1669700155.87245,-311.0864
1669700163.21722,1669700155.88807,-295.0361
1669700163.2175052,1669700155.9037,-271.9185
1669700163.2182672,1669700155.91932,-242.7031
1669700163.2185402,1669700155.93495,-209.6326
1669700163.2187362,1669700155.95057,-175.3596
1669700163.2189116,1669700155.9662,-142.1821
1669700163.2190802,1669700155.98183,-111.6243
1669700163.2192483,1669700155.99745,-84.51416
1669700163.2194133,1669700156.01308,-61.23987
1669700163.219579,1669700156.0287,-42.11859
1669700163.3741024,1669700156.04433,-27.50653
1669700163.3749936,1669700156.05995,-17.69818
1669700163.375579,1669700156.07558,-12.66635
1669700163.375842,1669700156.09121,-11.86905
1669700163.3760343,1669700156.10683,-14.25497
1669700163.376213,1669700156.12246,-18.45959
1669700163.3763833,1669700156.13808,-23.12753
1669700163.3765478,1669700156.15371,-27.12582
1669700163.3767173,1669700156.16933,-29.68942
1669700163.3768806,1669700156.18496,-30.34894
1669700163.377044,1669700156.20059,-28.86963
1669700163.5305798,1669700156.21621,-25.15549
1669700163.5316632,1669700156.23184,-19.27408
1669700163.5318904,1669700156.24746,-11.51443
1669700163.532077,1669700156.26309,-2.431854
1669700163.5322504,1669700156.27871,7.130096
1669700163.5324187,1669700156.29434,16.18158
1669700163.532587,1669700156.30997,23.75317
1669700163.532777,1669700156.32559,29.17239
1669700163.532945,1669700156.34122,32.17401
1669700163.5331068,1669700156.35684,32.97356
1669700163.5332677,1669700156.37247,32.07047
1669700163.688048,1669700156.38809,30.01355
1669700163.6886184,1669700156.40372,27.22771
1669700163.688759,1669700156.41935,23.88311
1669700163.688866,1669700156.43497,20.04158
1669700163.6889608,1669700156.4506,15.71509
1669700163.6890526,1669700156.46622,11.00159
1669700163.689144,1669700156.48185,6.00229
1669700163.6892314,1669700156.49747,0.7170062
1669700163.6893194,1669700156.5131,-4.962744
1669700163.6894073,1669700156.52873,-11.17134
1669700163.6894958,1669700156.54435,-17.88312
1669700163.9356809,1669700156.55998,-24.85281
1669700163.936752,1669700156.5756,-31.63908
1669700163.936983,1669700156.59123,-37.87509
1669700163.9371777,1669700156.60685,-43.47194
1669700163.9373524,1669700156.62248,-48.74637
1669700163.9375222,1669700156.63811,-54.27815
1669700163.9376886,1669700156.65373,-60.69008
1669700163.9378548,1669700156.66936,-68.50653
1669700163.938025,1669700156.68498,-78.1174
1669700163.9381943,1669700156.70061,-89.85977
1669700163.9383967,1669700156.71623,-103.8464
1669700164.025187,1669700156.73186,-119.644
1669700164.0259628,1669700156.74749,-135.8008
1669700164.026902,1669700156.76311,-149.8146
1669700164.0271292,1669700156.77874,-158.5177
1669700164.0273175,1669700156.79436,-159.0737
1669700164.027492,1669700156.80999,-150.0434
1669700164.0276585,1669700156.82561,-131.8619
1669700164.027828,1669700156.84124,-106.5759
1669700164.0279944,1669700156.85687,-76.87415
1669700164.0281594,1669700156.87249,-45.02667
1669700164.0283253,1669700156.88812,-12.37988
1669700164.2057307,1669700156.90374,20.39575
1669700164.2068279,1669700156.91937,52.63428
1669700164.2070963,1669700156.93499,83.09186
1669700164.207292,1669700156.95062,109.9081
1669700164.2074695,1669700156.96625,131.2573
1669700164.2076476,1669700156.98187,146.0995
1669700164.207817,1669700156.9975,154.6992
1669700164.2079833,1669700157.01312,158.4683
1669700164.2081494,1669700157.02875,159.2967
1669700164.2083142,1669700157.04438,158.7914
1669700164.2084816,1669700157.06,157.821
1669700164.385304,1669700157.07563,156.5834
1669700164.3864126,1669700157.09125,155.0449
1669700164.3866541,1669700157.10688,153.3735
1669700164.3868432,1669700157.1225,152.1331
1669700164.3870187,1669700157.13813,152.0416
1669700164.3871882,1669700157.15376,153.5629
1669700164.3873534,1669700157.16938,156.5722
1669700164.3875172,1669700157.18501,160.3517
1669700164.3876808,1669700157.20063,163.8585
1669700164.387847,1669700157.21626,166.1544
1669700164.3880122,1669700157.23188,166.7057
1669700164.565294,1669700157.24751,165.4833
1669700164.5663695,1669700157.26314,162.7426
1669700164.5666416,1669700157.27876,158.8099
1669700164.566835,1669700157.29439,153.9069
1669700164.5670102,1669700157.31001,148.0933
1669700164.5671794,1669700157.32564,141.4529
1669700164.5673463,1669700157.34126,134.1604
1669700164.5675094,1669700157.35689,126.5137
1669700164.5676723,1669700157.37252,118.8466
1669700164.567832,1669700157.38814,111.3647
1669700164.5679922,1669700157.40377,104.031
1669700164.733936,1669700157.41939,96.60876
1669700164.734122,1669700157.43502,88.81531
1669700164.7342916,1669700157.45064,80.49048
1669700164.7344968,1669700157.46627,71.73865
1669700164.734661,1669700157.4819,62.94214
1669700164.7348247,1669700157.49752,54.57336
1669700164.7349885,1669700157.51315,46.99304
1669700164.7351506,1669700157.52877,40.20276
1669700164.7353113,1669700157.5444,33.82031
1669700164.7354727,1669700157.56002,27.14417
1669700164.7356315,1669700157.57565,19.5321
1669700164.948473,1669700157.59128,10.61987
1669700164.9496899,1669700157.6069,0.5223389
1669700164.9499788,1669700157.62253,-10.25354
1669700164.9507165,1669700157.63815,-21.02441
1669700164.9509072,1669700157.65378,-31.16931
1669700164.9510796,1669700157.6694,-40.3678
1669700164.9512475,1669700157.68503,-48.69263
1669700164.9514117,1669700157.70066,-56.65674
1669700164.9515755,1669700157.71628,-65.17773
1669700164.9517357,1669700157.73191,-75.4613
1669700164.9519207,1669700157.74753,-88.52405
1669700165.110357,1669700157.76316,-104.657
1669700165.110544,1669700157.77878,-122.744
1669700165.1107082,1669700157.79441,-140.0349
1669700165.1108682,1669700157.81004,-152.5219
1669700165.1110306,1669700157.82566,-155.9703
1669700165.111192,1669700157.84129,-147.3958
1669700165.1113513,1669700157.85691,-126.1724
1669700165.1115117,1669700157.87254,-94.41687
1669700165.1116734,1669700157.88816,-56.31421
1669700165.1118343,1669700157.90379,-16.8053
1669700165.1119976,1669700157.91942,19.84131
1669700165.2403321,1669700157.93504,50.99048
1669700165.2415338,1669700157.95067,75.72522
1669700165.2418327,1669700157.96629,94.43738
1669700165.2420392,1669700157.98192,108.0481
1669700165.2422285,1669700157.99754,117.5062
1669700165.2424407,1669700158.01317,123.5463
1669700165.2426157,1669700158.0288,126.8105
1669700165.2427807,1669700158.04442,127.9601
1669700165.2429428,1669700158.06005,127.7367
1669700165.243105,1669700158.07567,126.8995
1669700165.2432668,1669700158.0913,126.0127
1669700165.397859,1669700158.10692,125.4108
1669700165.3986382,1669700158.12255,125.1812
1669700165.3988063,1669700158.13818,125.3336
1669700165.3989449,1669700158.1538,125.8557
1669700165.3990676,1669700158.16943,126.8093
1669700165.3991845,1669700158.18505,128.1847
1669700165.3993056,1669700158.20068,129.8745
1669700165.39943,1669700158.2163,131.6541
1669700165.3995514,1669700158.23193,133.1733
1669700165.3996727,1669700158.24756,134.1565
1669700165.3997939,1669700158.26318,134.3867
1669700165.577919,1669700158.27881,133.8079
1669700165.579,1669700158.29443,132.4026
1669700165.579235,1669700158.31006,130.1509
1669700165.5794232,1669700158.32568,127.0107
1669700165.579601,1669700158.34131,122.949
1669700165.57977,1669700158.35694,118.0602
1669700165.5799365,1669700158.37256,112.5283
1669700165.5801005,1669700158.38819,106.6464
1669700165.5802655,1669700158.40381,100.7047
1669700165.5804298,1669700158.41944,94.91113
1669700165.5805948,1669700158.43506,89.3335
1669700165.7803197,1669700158.45069,83.90894
1669700165.7814286,1669700158.46632,78.49402
1669700165.7816947,1669700158.48194,72.86462
1669700165.7818942,1669700158.49757,66.8573
1669700165.782074,1669700158.51319,60.38477
1669700165.782245,1669700158.52882,53.63464
1669700165.782454,1669700158.54444,46.99414
1669700165.782624,1669700158.56007,40.98901
1669700165.7827864,1669700158.5757,36.03918
1669700165.7829492,1669700158.59132,32.23962
1669700165.783111,1669700158.60695,29.22864
1669700165.9377258,1669700158.62257,26.25586
1669700165.9384878,1669700158.6382,22.55627
1669700165.9386585,1669700158.65382,17.66345
1669700165.938797,1669700158.66945,11.77112
1669700165.9389257,1669700158.68508,5.644287
1669700165.9390504,1669700158.7007,0.3571777
1669700165.939175,1669700158.71633,-3.153442
1669700165.9392974,1669700158.73195,-4.475342
1669700165.9394207,1669700158.74758,-3.901001
1669700165.9395423,1669700158.7632,-2.513184
1669700165.9396632,1669700158.77883,-1.967407
1669700166.1178083,1669700158.79446,-4.213501
1669700166.118797,1669700158.81008,-10.9165
1669700166.1190305,1669700158.82571,-22.7832
1669700166.1192222,1669700158.84133,-38.93298
1669700166.1193964,1669700158.85696,-56.64136
1669700166.1195674,1669700158.87258,-71.82556
1669700166.1197348,1669700158.88821,-80.12073
1669700166.1199017,1669700158.90384,-78.32581
1669700166.1200683,1669700158.91946,-65.48438
1669700166.1202335,1669700158.93509,-43.203
1669700166.1203995,1669700158.95071,-14.95532
1669700166.2753086,1669700158.96634,15.21179
1669700166.2764153,1669700158.98196,43.97449
1669700166.276655,1669700158.99759,69.42175
1669700166.276846,1669700159.01322,90.9325
1669700166.2770245,1669700159.02884,108.5315
1669700166.2771966,1669700159.04447,122.1785
1669700166.2773635,1669700159.06009,131.4447
1669700166.277529,1669700159.07572,135.7001
1669700166.2776937,1669700159.09134,134.6425
1669700166.2778554,1669700159.10697,128.7513
1669700166.2780194,1669700159.1226,119.3419
1669700166.455691,1669700159.13822,108.2375
1669700166.4567187,1669700159.15385,97.11145
1669700166.4569826,1669700159.16947,86.99902
1669700166.4572017,1669700159.1851,78.10657
1669700166.4573824,1669700159.20073,70.11609
1669700166.4575539,1669700159.21635,62.6499
1669700166.457722,1669700159.23198,55.68738
1669700166.4578884,1669700159.2476,49.60608
1669700166.4580503,1669700159.26323,44.8772
1669700166.4582152,1669700159.27885,41.65222
1669700166.458403,1669700159.29448,39.47595
1669700166.6578293,1669700159.31011,37.38855
1669700166.6589324,1669700159.32573,34.28113
1669700166.6591988,1669700159.34136,29.40698
1669700166.659393,1669700159.35698,22.72375
1669700166.6595678,1669700159.37261,14.8562
1669700166.6597376,1669700159.38823,6.838501
1669700166.6599042,1669700159.40386,-0.402832
1669700166.6600733,1669700159.41949,-6.352295
1669700166.6602385,1669700159.43511,-11.0752
1669700166.660402,1669700159.45074,-15.09326
1669700166.660584,1669700159.46636,-19.11292
1669700166.81584,1669700159.48199,-23.71973
1669700166.8169196,1669700159.49761,-29.125
1669700166.817191,1669700159.51324,-35.10242
1669700166.8173876,1669700159.52887,-41.06812
1669700166.817568,1669700159.54449,-46.34949
1669700166.8177416,1669700159.56012,-50.39697
1669700166.8179078,1669700159.57574,-53.02783
1669700166.8180723,1669700159.59137,-54.51025
1669700166.8182375,1669700159.60699,-55.46576
1669700166.8184414,1669700159.62262,-56.66357
1669700166.8186128,1669700159.63825,-58.78802
1669700167.0229585,1669700159.65387,-62.22449
1669700167.0231419,1669700159.6695,-66.93683
1669700167.0233119,1669700159.68512,-72.60364
1669700167.0234814,1669700159.70075,-78.66772
1669700167.0236468,1669700159.71637,-84.55969
1669700167.0238094,1669700159.732,-89.8717
1669700167.0239756,1669700159.74763,-94.47614
1669700167.0241368,1669700159.76325,-98.61707
1669700167.0242965,1669700159.77888,-102.8632
1669700167.0244596,1669700159.7945,-107.9502
1669700167.024619,1669700159.81013,-114.3686
1669700167.1310558,1669700159.82575,-122.0374
1669700167.132464,1669700159.84138,-130.0591
1669700167.1329827,1669700159.85701,-136.7844
1669700167.13321,1669700159.87263,-140.2469
1669700167.1336634,1669700159.88826,-138.7402
1669700167.1338425,1669700159.90388,-131.4158
1669700167.1340108,1669700159.91951,-118.5424
1669700167.1341827,1669700159.93513,-101.4515
1669700167.1343734,1669700159.95076,-82.12634
1669700167.1345465,1669700159.96639,-62.65601
1669700167.1347077,1669700159.98201,-44.711
1669700167.3110812,1669700159.99764,-29.30042
1669700167.3151543,1669700160.01326,-16.72681
1669700167.3153746,1669700160.02889,-6.75061
1669700167.3155303,1669700160.04451,1.098267
1669700167.3156672,1669700160.06014,7.296204
1669700167.3157978,1669700160.07577,12.11353
1669700167.3159246,1669700160.09139,15.66309
1669700167.316051,1669700160.10702,17.94806
1669700167.3161757,1669700160.12264,19.06671
1669700167.316323,1669700160.13827,19.26489
1669700167.3164523,1669700160.15389,18.91901
1669700167.4682996,1669700160.16952,18.49268
1669700167.4688878,1669700160.18515,18.31818
1669700167.4690292,1669700160.20077,18.63525
1669700167.4691355,1669700160.2164,19.47974
1669700167.4692304,1669700160.23202,20.80725
1669700167.4693198,1669700160.24765,22.48901
1669700167.4694092,1669700160.26327,24.36597
1669700167.4694972,1669700160.2789,26.24255
1669700167.4695816,1669700160.29453,27.89789
1669700167.4696677,1669700160.31015,29.14099
1669700167.4697526,1669700160.32578,29.87158
1669700167.6936193,1669700160.3414,30.12347
1669700167.694998,1669700160.35703,30.0542
1669700167.695556,1669700160.37265,29.86212
1669700167.695763,1669700160.38828,29.68073
1669700167.695945,1669700160.40391,29.51892
1669700167.6961195,1669700160.41953,29.25385
1669700167.6962903,1669700160.43516,28.70581
1669700167.6964557,1669700160.45078,27.70514
1669700167.69662,1669700160.46641,26.08673
1669700167.6967826,1669700160.48203,23.77502
1669700167.6969466,1669700160.49766,20.73053
1669700167.8278701,1669700160.51329,16.94983
1669700167.828944,1669700160.52891,12.52893
1669700167.829178,1669700160.54454,7.628174
1669700167.829367,1669700160.56016,2.536194
1669700167.8295405,1669700160.57579,-2.433838
1669700167.829709,1669700160.59141,-6.961121
1669700167.8299007,1669700160.60704,-10.89175
1669700167.8300736,1669700160.62267,-14.28473
1669700167.8302374,1669700160.63829,-17.46222
1669700167.8304381,1669700160.65392,-20.9296
1669700167.8306048,1669700160.66954,-25.12335
1669700167.9854934,1669700160.68517,-30.23663
1669700167.9865165,1669700160.70079,-36.03329
1669700167.9867525,1669700160.71642,-41.97803
1669700167.9869373,1669700160.73205,-47.43198
1669700167.9871123,1669700160.74767,-51.98532
1669700167.9872813,1669700160.7633,-55.59897
1669700167.9874525,1669700160.77892,-58.65726
1669700167.9876182,1669700160.79455,-61.76572
1669700167.9877813,1669700160.81017,-65.54947
1669700167.9879441,1669700160.8258,-70.561
1669700167.988107,1669700160.84143,-77.17871
1669700168.1654189,1669700160.85705,-85.5264
1669700168.1664736,1669700160.87268,-95.2023
1669700168.1667075,1669700160.8883,-105.0392
1669700168.1668966,1669700160.90393,-112.9802
1669700168.167075,1669700160.91955,-116.41
1669700168.1672454,1669700160.93518,-112.9243
1669700168.1674137,1669700160.95081,-101.2329
1669700168.1675808,1669700160.96643,-81.83179
1669700168.167746,1669700160.98206,-56.97409
1669700168.1679122,1669700160.99768,-30.01318
1669700168.1680753,1669700161.01331,-4.285675
1669700168.3243215,1669700161.02893,17.7887
1669700168.3286543,1669700161.04456,35.18234
1669700168.328956,1669700161.06019,48.07108
1669700168.3291616,1669700161.07581,57.23541
1669700168.3293447,1669700161.09144,63.5592
1669700168.3295188,1669700161.10706,67.62518
1669700168.3296902,1669700161.12269,69.77533
1669700168.3298595,1669700161.13831,70.2861
1669700168.3300264,1669700161.15394,69.54153
1669700168.3301919,1669700161.16957,68.01328
1669700168.3303857,1669700161.18519,66.16013
1669700168.5029573,1669700161.20082,64.27917
1669700168.5041153,1669700161.21644,62.4751
1669700168.5043797,1669700161.23207,60.73761
1669700168.5045729,1669700161.24769,59.08115
1669700168.5047467,1669700161.26332,57.68088
1669700168.5049193,1669700161.27895,56.82129
1669700168.5050836,1669700161.29457,56.76923
1669700168.505251,1669700161.3102,57.58075
1669700168.5054152,1669700161.32582,58.98328
1669700168.5055788,1669700161.34145,60.37463
1669700168.505744,1669700161.35707,60.94702
1669700168.6828544,1669700161.3727,59.9791
1669700168.6839383,1669700161.38833,57.04932
1669700168.6842022,1669700161.40395,52.1965
1669700168.684401,1669700161.41958,45.89108
1669700168.6845763,1669700161.4352,38.84238
1669700168.6847463,1669700161.45083,31.73367
1669700168.68491,1669700161.46645,24.98438
1669700168.6850717,1669700161.48208,18.70419
1669700168.6852374,1669700161.49771,12.70831
1669700168.6853998,1669700161.51333,6.746292
1669700168.6855602,1669700161.52896,0.6240082
1669700168.840901,1669700161.54458,-5.652557
1669700168.8412004,1669700161.56021,-11.89137
1669700168.8414073,1669700161.57583,-17.86313
1669700168.8415873,1669700161.59146,-23.31911
1669700168.8417587,1669700161.60709,-28.12021
1669700168.8419259,1669700161.62271,-32.20253
1669700168.8420882,1669700161.63834,-35.5627
1669700168.8422515,1669700161.65396,-38.21523
1669700168.8424504,1669700161.66959,-40.18117
1669700168.8426158,1669700161.68522,-41.54829
1669700168.842776,1669700161.70084,-42.4787
1669700169.0210004,1669700161.71647,-43.26678
1669700169.021305,1669700161.73209,-44.26723
1669700169.021513,1669700161.74772,-45.81563
1669700169.021696,1669700161.76334,-48.08348
1669700169.021872,1669700161.77897,-50.99657
1669700169.0220416,1669700161.7946,-54.20963
1669700169.0222075,1669700161.81022,-57.27641
1669700169.0224154,1669700161.82585,-59.89572
1669700169.0225952,1669700161.84147,-62.06923
1669700169.0227563,1669700161.8571,-64.2695
1669700169.0229173,1669700161.87272,-67.29912
1669700169.2014735,1669700161.88835,-72.09954
1669700169.2026072,1669700161.90398,-79.35195
1669700169.2028797,1669700161.9196,-89.04609
1669700169.2031276,1669700161.93523,-100.1143
1669700169.2035408,1669700161.95085,-110.3683
1669700169.2039886,1669700161.96648,-116.8952
1669700169.2041824,1669700161.9821,-116.8679
1669700169.2046275,1669700161.99773,-108.6097
1669700169.2048202,1669700162.01336,-92.3034
1669700169.2049904,1669700162.02898,-70.11835
1669700169.205159,1669700162.04461,-45.48839
1669700169.3577964,1669700162.06023,-21.95055
1669700169.358547,1669700162.07586,-2.046753
1669700169.358701,1669700162.09148,13.23345
1669700169.358838,1669700162.10711,24.18722
1669700169.3589659,1669700162.12274,31.73792
1669700169.3590875,1669700162.13836,36.62153
1669700169.3592093,1669700162.15399,39.11732
1669700169.35933,1669700162.16961,39.14783
1669700169.3594513,1669700162.18524,36.75985
1669700169.3595712,1669700162.20086,32.40851
1669700169.3596907,1669700162.21649,26.98801
1669700169.5380416,1669700162.23212,21.50957
1669700169.539412,1669700162.24774,16.69019
1669700169.5396776,1669700162.26337,12.75257
1669700169.5398748,1669700162.27899,9.448982
1669700169.5400538,1669700162.29462,6.366966
1669700169.5402284,1669700162.31024,3.260452
1669700169.5403967,1669700162.32587,0.2234421
1669700169.5405643,1669700162.3415,-2.258453
1669700169.5407295,1669700162.35712,-3.562767
1669700169.5408914,1669700162.37275,-3.177208
1669700169.5410538,1669700162.38837,-1.017242
1669700169.7182965,1669700162.404,2.48394
1669700169.7194402,1669700162.41962,6.430908
1669700169.7197177,1669700162.43525,9.831169
1669700169.7199242,1669700162.45088,11.90247
1669700169.7201114,1669700162.4665,12.37895
1669700169.720288,1669700162.48213,11.59686
1669700169.7204566,1669700162.49775,10.24644
1669700169.7206275,1669700162.51338,9.039734
1669700169.7207994,1669700162.529,8.337669
1669700169.7209709,1669700162.54463,8.050407
1669700169.721141,1669700162.56026,7.697746
1669700169.8753316,1669700162.57588,6.751213
1669700169.8761137,1669700162.59151,4.908356
1669700169.8763137,1669700162.60713,2.247917
1669700169.8764653,1669700162.62276,-0.8765869
1669700169.8766074,1669700162.63838,-4.095093
1669700169.8767424,1669700162.65401,-7.205215
1669700169.8768725,1669700162.66964,-10.36184
1669700169.8770018,1669700162.68526,-13.92117
1669700169.8771312,1669700162.70089,-18.31879
1669700169.8772593,1669700162.71651,-23.7617
1669700169.87739,1669700162.73214,-30.12387
1669700170.077848,1669700162.74776,-36.9311
1669700170.0789583,1669700162.76339,-43.5804
1669700170.0792336,1669700162.77902,-49.58727
1669700170.0794437,1669700162.79464,-54.82648
1669700170.0796282,1669700162.81027,-59.65665
1669700170.0798051,1669700162.82589,-64.80225
1669700170.0799785,1669700162.84152,-71.13458
1669700170.0801435,1669700162.85714,-79.30863
1669700170.0803134,1669700162.87277,-89.44234
1669700170.0804844,1669700162.8884,-100.827
1669700170.080657,1669700162.90402,-111.834
1669700170.2128346,1669700162.91965,-120.187
1669700170.213902,1669700162.93527,-123.4237
1669700170.214128,1669700162.9509,-119.6788
1669700170.2143416,1669700162.96652,-108.2694
1669700170.214548,1669700162.98215,-90.02995
1669700170.2147212,1669700162.99778,-67.08128
1669700170.2148893,1669700163.0134,-42.24599
1669700170.2150548,1669700163.02903,-18.31454
1669700170.2152228,1669700163.04465,2.579361
1669700170.2153866,1669700163.06028,19.1972
1669700170.2155519,1669700163.0759,31.13518
1669700170.4619815,1669700163.09153,38.58867
1669700170.4621937,1669700163.10716,42.15831
1669700170.4624126,1669700163.12278,42.67268
1669700170.4625978,1669700163.13841,41.07135
1669700170.462771,1669700163.15403,38.26494
1669700170.4629421,1669700163.16966,34.97493
1669700170.4631102,1669700163.18528,31.64603
1669700170.4632757,1669700163.20091,28.39217
1669700170.4634397,1669700163.21654,25.20145
1669700170.463607,1669700163.23216,22.02133
1669700170.463774,1669700163.24779,18.95164
1669700170.5733988,1669700163.26341,16.15326
1669700170.5744824,1669700163.27904,13.87143
1669700170.574722,1669700163.29466,12.29391
1669700170.5749116,1669700163.31029,11.54306
1669700170.5750856,1669700163.32592,11.65923
1669700170.5752554,1669700163.34154,12.55931
1669700170.5754144,1669700163.35717,14.07469
1669700170.575577,1669700163.37279,15.90669
1669700170.575739,1669700163.38842,17.71991
1669700170.575901,1669700163.40404,19.2182
1669700170.5760658,1669700163.41967,20.2522
1669700170.7303805,1669700163.4353,20.82314
1669700170.7337883,1669700163.45092,21.02087
1669700170.7340865,1669700163.46655,21.00595
1669700170.7342958,1669700163.48217,20.82748
1669700170.7345243,1669700163.4978,20.49905
1669700170.7347033,1669700163.51342,19.95834
1669700170.7348723,1669700163.52905,19.14058
1669700170.7350373,1669700163.54468,17.97681
1669700170.7352014,1669700163.5603,16.44077
1669700170.735361,1669700163.57593,14.59778
1669700170.735521,1669700163.59155,12.57907
1669700170.9151568,1669700163.60718,10.60223
1669700170.9153433,1669700163.6228,8.851227
1669700170.9155178,1669700163.63843,7.419098
1669700170.9156854,1669700163.65406,6.163177
1669700170.9158514,1669700163.66968,4.726563
1669700170.9160159,1669700163.68531,2.635437
1669700170.9161813,1669700163.70093,-0.5089417
1669700170.9163516,1669700163.71656,-4.79187
1669700170.9165158,1669700163.73218,-9.963013
1669700170.916682,1669700163.74781,-15.44189
1669700170.9168475,1669700163.76344,-20.55029
1669700171.1162224,1669700163.77906,-24.74951
1669700171.1164017,1669700163.79469,-27.85977
1669700171.1165726,1669700163.81031,-30.17319
1669700171.11674,1669700163.82594,-32.45721
1669700171.1169047,1669700163.84156,-35.81281
1669700171.1170678,1669700163.85719,-41.32904
1669700171.1172304,1669700163.87282,-49.68542
1669700171.1173944,1669700163.88844,-60.65814
1669700171.1175563,1669700163.90407,-72.83765
1669700171.1177182,1669700163.91969,-83.71561
1669700171.1178787,1669700163.93532,-90.20694
1669700171.2484748,1669700163.95094,-89.52591
1669700171.2496705,1669700163.96657,-80.07001
1669700171.2498457,1669700163.9822,-62.04294
1669700171.2499871,1669700163.99782,-37.43289
1669700171.2501178,1669700164.01345,-9.467255
1669700171.2502444,1669700164.02907,18.33463
1669700171.2504005,1669700164.0447,43.0845
1669700171.2505298,1669700164.06033,63.09805
1669700171.250653,1669700164.07595,78.02881
1669700171.2508078,1669700164.09158,88.54422
1669700171.25096,1669700164.1072,95.77979
1669700171.451208,1669700164.12283,100.7857
1669700171.4526098,1669700164.13845,104.2593
1669700171.4528394,1669700164.15408,106.4808
1669700171.4530287,1669700164.16971,107.4763
1669700171.453205,1669700164.18533,107.2353
1669700171.4533753,1669700164.20096,105.8506
1669700171.4535425,1669700164.21658,103.6024
1669700171.453709,1669700164.23221,100.8347
1669700171.4538727,1669700164.24783,97.90353
1669700171.4540384,1669700164.26346,95.11588
1669700171.4542062,1669700164.27909,92.74368
1669700171.608461,1669700164.29471,91.0116
1669700171.6087677,1669700164.31034,90.09576
1669700171.6089811,1669700164.32596,90.06793
1669700171.6091678,1669700164.34159,90.79691
1669700171.6093373,1669700164.35721,92.00864
1669700171.6095042,1669700164.37284,93.27859
1669700171.6096704,1669700164.38847,94.17142
1669700171.6098292,1669700164.40409,94.33395
1669700171.6099892,1669700164.41972,93.53888
1669700171.6101506,1669700164.43534,91.69016
1669700171.6103399,1669700164.45097,88.77353
1669700171.7654037,1669700164.46659,84.89297
1669700171.7662013,1669700164.48222,80.24176
1669700171.7669883,1669700164.49785,75.14334
1669700171.7672203,1669700164.51347,70.06552
1669700171.7674074,1669700164.5291,65.58618
1669700171.7675838,1669700164.54472,62.34845
1669700171.7677538,1669700164.56035,60.92035
1669700171.7679226,1669700164.57597,61.61661
1669700171.7680874,1669700164.5916,64.33875
1669700171.768251,1669700164.60723,68.58478
1669700171.7684124,1669700164.62285,73.49097
1669700171.9453483,1669700164.63848,78.19543
1669700171.9464724,1669700164.6541,82.12421
1669700171.946741,1669700164.66973,85.36853
1669700171.9469383,1669700164.68535,88.66223
1669700171.9471164,1669700164.70098,93.1337
1669700171.9472864,1669700164.71661,99.84531
1669700171.947453,1669700164.73223,109.2943
1669700171.947617,1669700164.74786,121.0677
1669700171.947782,1669700164.76348,133.8221
1669700171.947945,1669700164.77911,145.5674
1669700171.9481072,1669700164.79473,154.1396
1669700172.1028545,1669700164.81036,157.6809
1669700172.1036484,1669700164.82599,155.0985
1669700172.1038396,1669700164.84161,146.2192
1669700172.1039815,1669700164.85724,131.7196
1669700172.104134,1669700164.87286,112.8038
1669700172.104265,1669700164.88849,90.74226
1669700172.1043887,1669700164.90411,66.46438
1669700172.1045625,1669700164.91974,40.447
1669700172.104718,1669700164.93537,12.88258
1669700172.1048453,1669700164.95099,-15.80923
1669700172.1049705,1669700164.96662,-44.54659
1669700172.2834756,1669700164.98224,-71.45155
1669700172.2845223,1669700164.99787,-94.1319
1669700172.2847896,1669700165.01349,-110.4634
1669700172.2849855,1669700165.02912,-119.1893
1669700172.2851667,1669700165.04475,-120.3908
1669700172.2853384,1669700165.06037,-115.2543
1669700172.2855058,1669700165.076,-105.5651
1669700172.285675,1669700165.09162,-93.07729
1669700172.28584,1669700165.10725,-79.13708
1669700172.286002,1669700165.12287,-64.72746
1669700172.2861638,1669700165.1385,-50.64468
1669700172.5535142,1669700165.15413,-37.81352
1669700172.5542288,1669700165.16975,-27.16052
1669700172.5544837,1669700165.18538,-19.42215
1669700172.5545938,1669700165.201,-14.77077
1669700172.5546868,1669700165.21663,-12.76048
1669700172.5547779,1669700165.23225,-12.49062
1669700172.5548656,1669700165.24788,-13.07455
1669700172.5549543,1669700165.26351,-14.0407
1669700172.5550425,1669700165.27913,-15.45012
1669700172.5551307,1669700165.29476,-17.66656
1669700172.5552185,1669700165.31038,-20.92966
1669700172.6429658,1669700165.32601,-25.03589
1669700172.6440272,1669700165.34163,-29.29861
1669700172.6442604,1669700165.35726,-32.87805
1669700172.6444542,1669700165.37289,-35.20779
1669700172.6446323,1669700165.38851,-36.32059
1669700172.6448069,1669700165.40414,-36.81195
1669700172.6449788,1669700165.41976,-37.42697
1669700172.6451476,1669700165.43539,-38.6564
1669700172.6453142,1669700165.45101,-40.39532
1669700172.64548,1669700165.46664,-42.08572
1669700172.6456442,1669700165.48227,-43.05191
1669700172.8229296,1669700165.49789,-42.9043
1669700172.8244364,1669700165.51352,-41.78638
1669700172.8247333,1669700165.52914,-40.26117
1669700172.82494,1669700165.54477,-39.09036
1669700172.8251224,1669700165.56039,-38.93164
1669700172.8252945,1669700165.57602,-40.21326
1669700172.825462,1669700165.59165,-43.06116
1669700172.82563,1669700165.60727,-47.32697
1669700172.8257895,1669700165.6229,-52.5838
1669700172.8259509,1669700165.63852,-58.18121
1669700172.8261147,1669700165.65415,-63.40106
1669700173.0485806,1669700165.66977,-67.66064
1669700173.0500345,1669700165.6854,-70.79651
1669700173.051343,1669700165.70103,-73.00739
1669700173.051571,1669700165.71665,-74.62494
1669700173.05176,1669700165.73228,-75.6283
1669700173.051937,1669700165.7479,-75.42145
1669700173.0521116,1669700165.76353,-72.88794
1669700173.052281,1669700165.77915,-67.04437
1669700173.0524464,1669700165.79478,-57.75909
1669700173.052608,1669700165.81041,-46.22089
1669700173.052772,1669700165.82603,-34.88586
1669700173.141447,1669700165.84166,-26.73285
1669700173.1416352,1669700165.85728,-24.28638
1669700173.1418123,1669700165.87291,-28.68097
1669700173.1419797,1669700165.88853,-39.12262
1669700173.142146,1669700165.90416,-52.86218
1669700173.1423447,1669700165.91979,-65.66956
1669700173.1425238,1669700165.93541,-72.82922
1669700173.142687,1669700165.95104,-70.45496
1669700173.1428514,1669700165.96666,-56.98187
1669700173.1430142,1669700165.98229,-34.15509
1669700173.1431696,1669700165.99791,-7.083008
1669700173.3186855,1669700166.01354,16.96918
1669700173.319899,1669700166.02917,30.87292
1669700173.3206234,1669700166.04479,29.98773
1669700173.320812,1669700166.06042,13.74768
1669700173.3209927,1669700166.07604,-14.41608
1669700173.3211768,1669700166.09167,-48.45062
1669700173.321346,1669700166.10729,-81.89954
1669700173.3215096,1669700166.12292,-109.6689
1669700173.3216724,1669700166.13855,-128.9528
1669700173.3218353,1669700166.15417,-138.9844
1669700173.3219936,1669700166.1698,-140.377
1669700173.475623,1669700166.18542,-134.4896
1669700173.4767742,1669700166.20105,-123.1192
1669700173.4770746,1669700166.21667,-108.5193
1669700173.4772832,1669700166.2323,-93.27271
1669700173.4774697,1669700166.24793,-79.95343
1669700173.4776464,1669700166.26355,-70.41064
1669700173.477849,1669700166.27918,-65.23871
1669700173.478024,1669700166.2948,-63.53192
1669700173.478191,1669700166.31043,-63.24512
1669700173.4783885,1669700166.32606,-61.99182
1669700173.4785652,1669700166.34168,-57.9527
1669700173.6787353,1669700166.35731,-50.5061
1669700173.6804101,1669700166.37293,-40.31891
1669700173.6806455,1669700166.38856,-28.99982
1669700173.6808343,1669700166.40418,-18.367
1669700173.6810105,1669700166.41981,-9.73822
1669700173.6811805,1669700166.43544,-3.487427
1669700173.681349,1669700166.45106,0.9820557
1669700173.6815166,1669700166.46669,4.820923
1669700173.6816828,1669700166.48231,9.200745
1669700173.6818504,1669700166.49794,14.76831
1669700173.6820157,1669700166.51356,21.47772
1669700173.8352296,1669700166.52919,28.6286
1669700173.8359175,1669700166.54482,35.29785
1669700173.8360763,1669700166.56044,40.74164
1669700173.8361895,1669700166.57607,44.73157
1669700173.8362885,1669700166.59169,47.65521
1669700173.8363807,1669700166.60732,50.33997
1669700173.8364701,1669700166.62294,53.80109
1669700173.836558,1669700166.63857,58.87573
1669700173.8366454,1669700166.6542,66.03918
1669700173.8367324,1669700166.66982,75.23413
1669700173.8368182,1669700166.68545,85.95215
1669700174.0380743,1669700166.70107,97.23859
1669700174.039146,1669700166.7167,107.9122
1669700174.0393777,1669700166.73232,116.7263
1669700174.0395648,1669700166.74795,122.6511
1669700174.0397394,1669700166.76358,125.0588
1669700174.0399115,1669700166.7792,123.7734
1669700174.0400767,1669700166.79483,118.9267
1669700174.0402422,1669700166.81045,110.6156
1669700174.0404065,1669700166.82608,98.61774
1669700174.040571,1669700166.8417,82.30841
1669700174.0407362,1669700166.85733,60.84546
1669700174.1733794,1669700166.87296,33.63538
1669700174.1744616,1669700166.88858,0.8326416
1669700174.1747015,1669700166.90421,-36.26392
1669700174.1748922,1669700166.91983,-75.12427
1669700174.1750667,1669700166.93546,-112.1792
1669700174.175238,1669700166.95108,-143.3904
1669700174.175404,1669700166.96671,-164.97
1669700174.1755674,1669700166.98234,-174.1931
1669700174.175725,1669700166.99796,-170.0563
1669700174.1758864,1669700167.01359,-153.5862
1669700174.176046,1669700167.02921,-127.5936
1669700174.35348,1669700167.04484,-95.95465
1669700174.35457,1669700167.06046,-62.70892
1669700174.3548336,1669700167.07609,-31.16913
1669700174.3550317,1669700167.09172,-3.542358
1669700174.355211,1669700167.10734,19.0882
1669700174.3553843,1669700167.12297,36.44604
1669700174.3555534,1669700167.13859,48.73413
1669700174.3557167,1669700167.15422,56.47516
1669700174.3558812,1669700167.16984,60.43091
1669700174.3560436,1669700167.18547,61.69513
1669700174.3562074,1669700167.2011,61.6106
1669700174.5121677,1669700167.21672,61.6283
1669700174.5129955,1669700167.23235,63.04407
1669700174.5140073,1669700167.24797,66.72308
1669700174.5142746,1669700167.2636,72.83948
1669700174.514511,1669700167.27922,80.76312
1669700174.5146923,1669700167.29485,89.10583
1669700174.5148604,1669700167.31048,96.02704
1669700174.5150263,1669700167.3261,99.75464
1669700174.515192,1669700167.34173,99.16718
1669700174.5153556,1669700167.35735,94.21198
1669700174.5155172,1669700167.37298,86.01093
1669700174.6914196,1669700167.3886,76.54053
1669700174.6922054,1669700167.40423,68.06769
1669700174.6931994,1669700167.41986,62.38666
1669700174.6934674,1669700167.43548,60.23383
1669700174.6936657,1669700167.45111,60.91425
1669700174.6938448,1669700167.46673,62.23602
1669700174.6940217,1669700167.48236,60.78809
1669700174.6941905,1669700167.49798,52.5874
1669700174.6943893,1669700167.51361,34.04236
1669700174.6945646,1669700167.52924,3.082397
1669700174.694733,1669700167.54486,-39.85791
1669700174.8710144,1669700167.56049,-91.45947
1669700174.8722,1669700167.57611,-145.8838
1669700174.8725023,1669700167.59174,-195.9465
1669700174.8727074,1669700167.60736,-234.6874
1669700174.8728893,1669700167.62299,-256.8287
1669700174.873066,1669700167.63862,-259.7904
1669700174.8732357,1669700167.65424,-243.9666
1669700174.8734012,1669700167.66987,-212.463
1669700174.873566,1669700167.68549,-170.3411
1669700174.8737483,1669700167.70112,-123.6183
1669700174.8739133,1669700167.71674,-78.19409
1669700175.1188798,1669700167.73237,-38.7843
1669700175.12039,1669700167.748,-8.192383
1669700175.1206257,1669700167.76362,13.03796
1669700175.120814,1669700167.77925,26.38898
1669700175.1210155,1669700167.79487,34.63519
1669700175.1211998,1669700167.8105,40.71014
1669700175.1213675,1669700167.82612,46.69293
1669700175.1215343,1669700167.84175,53.05737
1669700175.121696,1669700167.85738,58.51917
1669700175.1218512,1669700167.873,60.45923
1669700175.1220121,1669700167.88863,55.66919
1669700175.208017,1669700167.90425,41.44025
1669700175.2091036,1669700167.91988,16.30878
1669700175.209369,1669700167.9355,-19.41187
1669700175.2095706,1669700167.95113,-63.62744
1669700175.2097497,1669700167.96676,-112.7163
1669700175.2099233,1669700167.98238,-162.0063
1669700175.21009,1669700167.99801,-206.3177
1669700175.2102618,1669700168.01363,-240.6357
1669700175.2104597,1669700168.02926,-260.8657
1669700175.210626,1669700168.04488,-264.6248
1669700175.2107897,1669700168.06051,-251.9235
1669700175.3657265,1669700168.07614,-225.2553
1669700175.3664424,1669700168.09176,-189.0562
1669700175.3672984,1669700168.10739,-148.6309
1669700175.3675663,1669700168.12301,-108.8815
1669700175.367767,1669700168.13864,-73.38617
1669700175.3679445,1669700168.15426,-43.98663
1669700175.3681192,1669700168.16989,-20.99316
1669700175.368286,1669700168.18552,-3.676453
1669700175.3684516,1669700168.20114,9.215942
1669700175.3686163,1669700168.21677,19.07581
1669700175.3687816,1669700168.23239,27.26599
1669700175.5688605,1669700168.24802,34.95398
1669700175.569916,1669700168.26364,42.9209
1669700175.5708816,1669700168.27927,51.45898
1669700175.5711615,1669700168.2949,60.37396
1669700175.571362,1669700168.31052,69.11554
1669700175.5715418,1669700168.32615,77.17242
1669700175.5717137,1669700168.34177,84.39337
1669700175.571883,1669700168.3574,91.09674
1669700175.5720475,1669700168.37302,97.92084
1669700175.5722136,1669700168.38865,105.4767
1669700175.57238,1669700168.40428,114.0409
1669700175.725585,1669700168.4199,123.3626
1669700175.7267268,1669700168.43553,132.8682
1669700175.7270231,1669700168.45115,141.8676
1669700175.7272277,1669700168.46678,149.8688
1669700175.7274065,1669700168.4824,156.6572
1669700175.7275817,1669700168.49803,162.194
1669700175.727752,1669700168.51366,166.5247
1669700175.7279143,1669700168.52928,169.6669
1669700175.7280762,1669700168.54491,171.6703
1669700175.7282424,1669700168.56053,172.5161
1669700175.7284057,1669700168.57616,172.0245
1669700175.9509637,1669700168.59178,169.463
1669700175.9520702,1669700168.60741,163.4757
1669700175.952334,1669700168.62304,152.2872
1669700175.952531,1669700168.63866,134.3301
1669700175.9527092,1669700168.65429,109.0062
1669700175.9528801,1669700168.66991,77.20514
1669700175.9530463,1669700168.68554,41.22119
1669700175.95321,1669700168.70116,4.129395
1669700175.9533706,1669700168.71679,-30.99579
1669700175.9535394,1669700168.73242,-61.68683
1669700175.9537024,1669700168.74804,-86.17523
1669700176.0630424,1669700168.76367,-103.2893
1669700176.064275,1669700168.77929,-112.3378
1669700176.064577,1669700168.79492,-113.2263
1669700176.0647852,1669700168.81054,-106.8439
1669700176.0649693,1669700168.82617,-95.30316
1669700176.0651462,1669700168.8418,-81.83075
1669700176.065318,1669700168.85742,-70.15381
1669700176.0654864,1669700168.87305,-63.68945
1669700176.0656548,1669700168.88867,-64.58539
1669700176.0658224,1669700168.9043,-73.10687
1669700176.0659869,1669700168.91993,-87.33405
1669700176.287977,1669700168.93555,-103.3301
1669700176.2905927,1669700168.95118,-115.8418
1669700176.2908921,1669700168.9668,-119.4042
1669700176.2911005,1669700168.98243,-109.76
1669700176.2912834,1669700168.99805,-85.11627
1669700176.2914624,1669700169.01368,-46.86517
1669700176.2916327,1669700169.02931,0.6010742
1669700176.2918003,1669700169.04493,50.94196
1669700176.2919674,1669700169.06056,97.31226
1669700176.2921298,1669700169.07618,133.9282
1669700176.292295,1669700169.09181,157.0702
1669700176.4005785,1669700169.10743,165.725
1669700176.4017518,1669700169.12306,161.6019
1669700176.402054,1669700169.13869,148.6945
1669700176.4022615,1669700169.15431,132.2377
1669700176.4024808,1669700169.16994,117.4149
1669700176.4026573,1669700169.18556,107.9446
1669700176.4028258,1669700169.20119,105.1069
1669700176.402992,1669700169.21681,107.7395
1669700176.4031608,1669700169.23244,113.0704
1669700176.4033263,1669700169.24807,118.1488
1669700176.403493,1669700169.26369,121.0511
1669700176.6480396,1669700169.27932,121.504
1669700176.649252,1669700169.29494,120.6371
1669700176.6495488,1669700169.31057,120.3077
1669700176.6497602,1669700169.32619,122.2618
1669700176.6499472,1669700169.34182,127.4056
1669700176.6501222,1669700169.35745,135.4305
1669700176.650291,1669700169.37307,144.7361
1669700176.6505072,1669700169.3887,152.7216
1669700176.650679,1669700169.40432,156.2534
1669700176.650847,1669700169.41995,152.5875
1669700176.6510155,1669700169.43557,140.0685
1669700176.7830403,1669700169.4512,118.503
1669700176.7841372,1669700169.46683,88.98108
1669700176.784403,1669700169.48245,53.11066
1669700176.7846024,1669700169.49808,12.06165
1669700176.7847848,1669700169.5137,-34.11816
1669700176.7849574,1669700169.52933,-86.15051
1669700176.7851276,1669700169.54495,-144.2342
1669700176.7852945,1669700169.56058,-206.3696
1669700176.7854588,1669700169.57621,-267.5319
1669700176.7856154,1669700169.59183,-320.3683
1669700176.785775,1669700169.60746,-357.507
1669700176.9434352,1669700169.62308,-374.4456
1669700176.9436018,1669700169.63871,-371.4061
1669700176.943764,1669700169.65433,-353.3428
1669700176.9439251,1669700169.66996,-327.7781
1669700176.944088,1669700169.68559,-301.8641
1669700176.9442456,1669700169.70121,-280.0257
1669700176.944403,1669700169.71684,-263.415
1669700176.9445653,1669700169.73246,-250.968
1669700176.9447248,1669700169.74809,-241.1489
1669700176.9448838,1669700169.76371,-233.2042
1669700176.9450378,1669700169.77934,-227.1692
1669700177.105982,1669700169.79497,-223.1111
1669700177.1062768,1669700169.81059,-220.368
1669700177.1065993,1669700169.82622,-217.499
1669700177.1068041,1669700169.84184,-213.0213
1669700177.106852,1669700169.85747,-206.3895
1669700177.1068997,1669700169.87309,-198.5566
1669700177.1069484,1669700169.88872,-191.6396
1669700177.106997,1669700169.90435,-188.1094
1669700177.1070433,1669700169.91997,-189.3779
1669700177.107091,1669700169.9356,-194.8572
1669700177.1071374,1669700169.95122,-201.7384
1669700177.3455353,1669700169.96685,-205.6863
1669700177.3467052,1669700169.98247,-202.3366
1669700177.3470633,1669700169.9981,-188.8942
1669700177.3473833,1669700170.01373,-165.3256
1669700177.347691,1669700170.02935,-134.3848
1669700177.347989,1669700170.04498,-100.6514
1669700177.3482828,1669700170.0606,-68.78555
1669700177.348576,1669700170.07623,-42.05984
1669700177.3488653,1669700170.09185,-21.5665
1669700177.3491554,1669700170.10748,-6.483582
1669700177.3494453,1669700170.12311,4.996704
1669700177.4585404,1669700170.13873,14.6496
1669700177.4596727,1669700170.15436,23.53699
1669700177.4600077,1669700170.16998,31.95389
1669700177.4603279,1669700170.18561,39.78333
1669700177.460631,1669700170.20123,47.01392
1669700177.4609241,1669700170.21686,53.98454
1669700177.46122,1669700170.23249,61.33937
1669700177.4615097,1669700170.24811,69.82549
1669700177.4617975,1669700170.26374,79.94725
1669700177.462087,1669700170.27936,91.80396
1669700177.4624128,1669700170.29499,105.1458
1669700177.6387365,1669700170.31061,119.5562
1669700177.6400251,1669700170.32624,134.7427
1669700177.640915,1669700170.34187,150.6352
1669700177.6412451,1669700170.35749,167.3063
1669700177.641559,1669700170.37312,184.603
1669700177.6418579,1669700170.38874,201.8211
1669700177.642151,1669700170.40437,217.5646
1669700177.6424782,1669700170.41999,229.9829
1669700177.6427732,1669700170.43562,237.4143
1669700177.6430576,1669700170.45125,238.9831
1669700177.643339,1669700170.46687,235.0154
1669700177.7954037,1669700170.4825,226.8601
1669700177.796184,1669700170.49812,216.3963
1669700177.7964232,1669700170.51375,205.3143
1669700177.796654,1669700170.52937,194.6519
1669700177.7968996,1669700170.545,184.6767
1669700177.7971246,1669700170.56063,175.1197
1669700177.7973409,1669700170.57625,165.5748
1669700177.7975545,1669700170.59188,155.7917
1669700177.7977679,1669700170.6075,145.8519
1669700177.7979817,1669700170.62313,136.125
1669700177.798197,1669700170.63875,127.2245
1669700177.9988053,1669700170.65438,119.8212
1669700178.0001023,1669700170.67001,114.552
1669700178.0010107,1669700170.68563,111.7249
1669700178.0013568,1669700170.70126,111.2
1669700178.0016756,1669700170.71688,112.3036
1669700178.0019767,1669700170.73251,113.9495
1669700178.0022717,1669700170.74813,115.0358
1669700178.0026178,1669700170.76376,114.8361
1669700178.0029104,1669700170.77939,113.3558
1669700178.0032015,1669700170.79501,111.3901
1669700178.0034902,1669700170.81064,110.2065
1669700178.133487,1669700170.82626,111.0343
1669700178.1346936,1669700170.84189,114.3955
1669700178.135039,1669700170.85751,119.7411
1669700178.1353736,1669700170.87314,125.3948
1669700178.1356993,1669700170.88877,129.025
1669700178.1359167,1669700170.90439,128.3267
1669700178.136132,1669700170.92002,121.883
1669700178.136341,1669700170.93564,109.7903
1669700178.1365461,1669700170.95127,93.86871
1669700178.136758,1669700170.96689,77.36394
1669700178.1369724,1669700170.98252,64.09914
1669700178.3130767,1669700170.99815,57.45049
1669700178.3141785,1669700171.01377,59.24527
1669700178.3145807,1669700171.0294,69.23669
1669700178.3149068,1669700171.04502,85.07468
1669700178.3152125,1669700171.06065,103.0138
1669700178.3155158,1669700171.07627,118.9274
1669700178.3158078,1669700171.0919,129.3361
1669700178.316103,1669700171.10753,132.0457
1669700178.3163905,1669700171.12315,126.3488
1669700178.316678,1669700171.13878,112.7847
1669700178.3169653,1669700171.1544,92.71838
1669700178.4712648,1669700171.17003,68.10282
1669700178.472364,1669700171.18566,41.31176
1669700178.4726942,1669700171.20128,15.13984
1669700178.473011,1669700171.21691,-7.382504
1669700178.4733138,1669700171.23253,-23.42275
1669700178.4736097,1669700171.24816,-31.08499
1669700178.4739008,1669700171.26378,-30.23083
1669700178.4741898,1669700171.27941,-22.86808
1669700178.474515,1669700171.29504,-12.98397
1669700178.4748073,1669700171.31066,-5.43684
1669700178.4750962,1669700171.32629,-4.424286
1669700178.6505284,1669700171.34191,-11.88062
1669700178.651636,1669700171.35754,-26.63733
1669700178.65199,1669700171.37316,-44.67312
1669700178.652314,1669700171.38879,-60.45847
1669700178.6526196,1669700171.40442,-68.90344
1669700178.6529193,1669700171.42004,-67.09849
1669700178.6532135,1669700171.43567,-55.21317
1669700178.653503,1669700171.45129,-36.19264
1669700178.6537917,1669700171.46692,-14.63036
1669700178.654079,1669700171.48254,4.904404
1669700178.6543965,1669700171.49817,19.27213
1669700178.8306305,1669700171.5138,27.54854
1669700178.831734,1669700171.52942,30.92079
1669700178.8320622,1669700171.54505,31.90421
1669700178.8323774,1669700171.56067,33.2068
1669700178.8326912,1669700171.5763,36.59354
1669700178.8329947,1669700171.59192,42.29187
1669700178.8332918,1669700171.60755,48.89407
1669700178.8335845,1669700171.62318,54.0473
1669700178.8338745,1669700171.6388,55.39749
1669700178.8341618,1669700171.65443,51.61438
1669700178.83449,1669700171.67005,43.04745
1669700178.9936182,1669700171.68568,31.66107
1669700178.9939306,1669700171.7013,20.45187
1669700178.9942298,1669700171.71693,12.42374
1669700178.9945672,1669700171.73256,9.694092
1669700178.994865,1669700171.74818,12.97009
1669700178.9951572,1669700171.76381,21.54373
1669700178.995446,1669700171.77943,33.6402
1669700178.9957356,1669700171.79506,46.86197
1669700178.9960194,1669700171.81068,58.52405
1669700178.996306,1669700171.82631,65.86444
1669700178.9965906,1669700171.84194,66.3161
1669700179.1488752,1669700171.85756,57.82184
1669700179.1490993,1669700171.87319,39.34152
1669700179.1493206,1669700171.88881,11.10568
1669700179.1495411,1669700171.90444,-25.49854
1669700179.1497555,1669700171.92006,-68.46362
1669700179.1499708,1669700171.93569,-115.8805
1669700179.1501868,1669700171.95132,-166.217
1669700179.150419,1669700171.96694,-218.171
1669700179.1506588,1669700171.98257,-270.1119
1669700179.150874,1669700171.99819,-319.5654
1669700179.151085,1669700172.01382,-363.212
1669700179.325565,1669700172.02944,-397.5398
1669700179.326784,1669700172.04507,-419.7565
1669700179.3271475,1669700172.0607,-428.5732
1669700179.3274717,1669700172.07632,-424.4496
1669700179.3277776,1669700172.09195,-409.2433
1669700179.3280818,1669700172.10757,-385.5712
1669700179.328378,1669700172.1232,-356.175
1669700179.3286757,1669700172.13882,-323.6112
1669700179.3289728,1669700172.15445,-290.1397
1669700179.3292644,1669700172.17008,-257.6889
1669700179.3295527,1669700172.1857,-227.7166
1669700179.506337,1669700172.20133,-201.0119
1669700179.5080962,1669700172.21695,-177.6209
1669700179.508428,1669700172.23258,-156.9142
1669700179.5087485,1669700172.2482,-137.9059
1669700179.5090587,1669700172.26383,-119.6213
1669700179.50936,1669700172.27946,-101.3964
1669700179.509658,1669700172.29508,-82.98975
1669700179.509949,1669700172.31071,-64.59271
1669700179.5102391,1669700172.32633,-46.63538
1669700179.5106206,1669700172.34196,-29.57367
1669700179.5109131,1669700172.35758,-13.78955
1669700179.6633441,1669700172.37321,0.48349
1669700179.6639488,1669700172.38884,13.14111
1669700179.664137,1669700172.40446,24.22635
1669700179.6643114,1669700172.42009,33.88202
1669700179.664479,1669700172.43571,42.2771
1669700179.6646419,1669700172.45134,49.62045
1669700179.6647995,1669700172.46696,56.0177
1669700179.6649556,1669700172.48259,61.52634
1669700179.6651106,1669700172.49822,66.10419
1669700179.6652637,1669700172.51384,69.73956
1669700179.6654177,1669700172.52947,72.47409
1669700179.843127,1669700172.54509,74.4053
1669700179.843879,1669700172.56072,75.69925
1669700179.8522086,1669700172.57634,76.45529
1669700179.8525717,1669700172.59197,76.71454
1669700179.8528976,1669700172.6076,76.40402
1669700179.853205,1669700172.62322,75.51166
1669700179.8535123,1669700172.63885,74.09235
1669700179.8538096,1669700172.65447,72.35995
1669700179.854106,1669700172.6701,70.5647
1669700179.8544261,1669700172.68572,68.89957
1669700179.8547251,1669700172.70135,67.33997
1669700180.0232143,1669700172.71698,65.61295
1669700180.0243385,1669700172.7326,63.28484
1669700180.0246682,1669700172.74823,59.91399
1669700180.0249846,1669700172.76385,55.33139
1669700180.0252917,1669700172.77948,49.692
1669700180.0255947,1669700172.7951,43.465
1669700180.025887,1669700172.81073,37.16025
1669700180.0261793,1669700172.82636,31.02522
1669700180.0265121,1669700172.84198,24.8405
1669700180.0268068,1669700172.85761,17.96526
1669700180.0270917,1669700172.87323,9.656616
1669700180.2030408,1669700172.88886,-0.5446472
1669700180.2068086,1669700172.90448,-12.53185
1669700180.2071764,1669700172.92011,-25.68166
1669700180.2074878,1669700172.93574,-39.2243
1669700180.207805,1669700172.95136,-52.64571
1669700180.2081115,1669700172.96699,-66.01553
1669700180.208412,1669700172.98261,-79.93957
1669700180.2087066,1669700172.99824,-95.33072
1669700180.208997,1669700173.01386,-112.9131
1669700180.2092862,1669700173.02949,-132.7917
1669700180.2095757,1669700173.04512,-154.1135
1669700180.3835678,1669700173.06074,-174.9815
1669700180.3846908,1669700173.07637,-192.6452
1669700180.3850496,1669700173.09199,-204.0609
1669700180.385377,1669700173.10762,-206.7046
1669700180.3856905,1669700173.12324,-199.2936
1669700180.385996,1669700173.13887,-182.2832
1669700180.386296,1669700173.1545,-157.6793
1669700180.3866327,1669700173.17012,-128.5068
1669700180.3869267,1669700173.18575,-97.91303
1669700180.3872206,1669700173.20137,-68.47788
1669700180.387513,1669700173.217,-41.90234
1669700180.5405676,1669700173.23262,-19.01164
1669700180.5413651,1669700173.24825,-0.0370636
1669700180.541606,1669700173.26388,15.20078
1669700180.5418375,1669700173.2795,27.11865
1669700180.5420587,1669700173.29513,36.32214
1669700180.5422792,1669700173.31075,43.54256
1669700180.542526,1669700173.32638,49.47357
1669700180.5427442,1669700173.34201,54.65556
1669700180.5429583,1669700173.35763,59.36432
1669700180.5431728,1669700173.37326,63.70346
1669700180.543389,1669700173.38888,67.64041
1669700180.6983545,1669700173.40451,71.19681
1669700180.6994593,1669700173.42013,74.45721
1669700180.699821,1669700173.43576,77.63336
1669700180.700148,1669700173.45139,80.97379
1669700180.7004542,1669700173.46701,84.71692
1669700180.7007606,1669700173.48264,89.0441
1669700180.7010567,1669700173.49826,93.94122
1669700180.701353,1669700173.51389,99.19089
1669700180.7016437,1669700173.52951,104.3452
1669700180.7019386,1669700173.54514,108.8513
1669700180.70223,1669700173.56077,112.1516
1669700180.878152,1669700173.57639,113.8369
1669700180.879282,1669700173.59202,113.7567
1669700180.8796113,1669700173.60764,112.0407
1669700180.8799326,1669700173.62327,109.078
1669700180.880241,1669700173.63889,105.3911
1669700180.8805406,1669700173.65452,101.5066
1669700180.8808408,1669700173.67015,97.73206
1669700180.8811324,1669700173.68577,94.12811
1669700180.8814192,1669700173.7014,90.49408
1669700180.8817077,1669700173.71702,86.57751
1669700180.881994,1669700173.73265,82.23291
1669700181.0588145,1669700173.74827,77.55499
1669700181.0600429,1669700173.7639,72.87994
1669700181.061055,1669700173.77953,68.57855
1669700181.0613914,1669700173.79515,64.8573
1669700181.0617075,1669700173.81078,61.60596
1669700181.0620155,1669700173.8264,58.41486
1669700181.062353,1669700173.84203,54.82623
1669700181.062659,1669700173.85765,50.51953
1669700181.0629568,1669700173.87328,45.51099
1669700181.0632465,1669700173.88891,40.11993
1669700181.063538,1669700173.90453,34.82654
1669700181.215849,1669700173.92016,30.02429
1669700181.2168581,1669700173.93578,25.86151
1669700181.2171578,1669700173.95141,22.11768
1669700181.2174525,1669700173.96703,18.24506
1669700181.2177398,1669700173.98266,13.56586
1669700181.2180173,1669700173.99829,7.518005
1669700181.218294,1669700174.01391,-0.08258057
1669700181.2185984,1669700174.02954,-8.925537
1669700181.2188675,1669700174.04516,-18.29816
1669700181.2191331,1669700174.06079,-27.34882
1669700181.2193985,1669700174.07641,-35.42822
1669700181.4000895,1669700174.09204,-42.34235
1669700181.4004083,1669700174.10767,-48.44818
1669700181.4007118,1669700174.12329,-54.50256
1669700181.4010088,1669700174.13892,-61.49231
1669700181.401301,1669700174.15454,-70.3562
1669700181.401595,1669700174.17017,-81.68512
1669700181.401881,1669700174.18579,-95.33734
1669700181.4021747,1669700174.20142,-110.1533
1669700181.4024937,1669700174.21705,-123.7859
1669700181.402791,1669700174.23267,-133.033
1669700181.4030793,1669700174.2483,-134.5759
1669700181.5528643,1669700174.26392,-126.0086
1669700181.5532525,1669700174.27955,-106.7111
1669700181.5538213,1669700174.29517,-78.12683
1669700181.5540016,1669700174.3108,-43.34949
1669700181.55417,1669700174.32643,-6.140991
1669700181.554344,1669700174.34205,30.10822
1669700181.5545108,1669700174.35768,63.09674
1669700181.554671,1669700174.3733,91.77008
1669700181.5548267,1669700174.38893,116.0314
1669700181.554986,1669700174.40455,136.3266
1669700181.5551429,1669700174.42018,153.2461
1669700181.7331965,1669700174.43581,167.3973
1669700181.7343643,1669700174.45143,179.3717
1669700181.7347376,1669700174.46706,189.8289
1669700181.7350676,1669700174.48268,199.4144
1669700181.73538,1669700174.49831,208.7446
1669700181.7356844,1669700174.51393,218.2913
1669700181.7359872,1669700174.52956,228.3685
1669700181.7362852,1669700174.54519,239.2172
1669700181.736577,1669700174.56081,251.0718
1669700181.7368662,1669700174.57644,264.2703
1669700181.7371562,1669700174.59206,279.2399
1669700181.9369402,1669700174.60769,296.412
1669700181.9409263,1669700174.62331,315.9789
1669700181.9412332,1669700174.63894,337.7297
1669700181.9415386,1669700174.65457,360.7826
1669700181.9418502,1669700174.67019,383.4669
1669700181.9421551,1669700174.68582,403.4034
1669700181.9424825,1669700174.70144,417.8159
1669700181.9427865,1669700174.71707,424.1292
1669700181.943083,1669700174.73269,420.6152
1669700181.943375,1669700174.74832,406.9826
1669700181.9436681,1669700174.76395,384.505
1669700182.0702517,1669700174.77957,355.726
1669700182.070552,1669700174.7952,323.7166
1669700182.070778,1669700174.81082,291.2507
1669700182.070843,1669700174.82645,260.2164
1669700182.0709074,1669700174.84207,231.3961
1669700182.0709615,1669700174.8577,204.6791
1669700182.071013,1669700174.87333,179.4553
1669700182.0710638,1669700174.88895,155.0037
1669700182.0711148,1669700174.90458,130.6954
1669700182.0711641,1669700174.9202,106.0933
1669700182.0712135,1669700174.93583,80.94409
1669700182.2956645,1669700174.95145,55.15918
1669700182.2968092,1669700174.96708,28.78381
1669700182.2971709,1669700174.98271,1.892151
1669700182.2974982,1669700174.99833,-25.48239
1669700182.2978067,1669700175.01396,-53.45544
1669700182.2981088,1669700175.02958,-82.31473
1669700182.2984426,1669700175.04521,-112.401
1669700182.2987447,1669700175.06083,-144.1082
1669700182.299038,1669700175.07646,-177.8737
1669700182.2993262,1669700175.09209,-214.1451
1669700182.2996159,1669700175.10771,-253.1247
1669700182.4532087,1669700175.12334,-294.3368
1669700182.4570704,1669700175.13896,-336.2343
1669700182.4572327,1669700175.15459,-376.2247
1669700182.4573941,1669700175.17021,-411.2666
1669700182.4575589,1669700175.18584,-438.9354
1669700182.4577203,1669700175.20147,-458.3051
1669700182.4578803,1669700175.21709,-469.9995
